field.frameNumber,field.x_m,field.y_m,field.z_m,,,field.frameNumber,field.x_m,field.y_m,field.z_m
656990,0.4921271693473896,0.31693675070252475,0.48035855123493,,,656990,0.5072563764863874,0.3194353590044014,0.11508196696331441
656991,0.49202432516636496,0.3168937398997381,0.4803584821920896,,,656991,0.5072453526899607,0.31943147996613125,0.11508598231600956
656992,0.4919279800978589,0.3168441968052039,0.4803543703403968,,,656992,0.5072316565571233,0.319425293062235,0.1150856276341782
656993,0.49184135181224936,0.3167924872560653,0.4803471040645245,,,656993,0.507220070014401,0.31942012374462975,0.11508184494153825
656994,0.49176477468611646,0.3167362167913197,0.48034181024031225,,,656994,0.5072122227197495,0.3194126150917267,0.1150798053580285
656995,0.4916980632945173,0.31667542306510543,0.48033730699190047,,,656995,0.5072072435609054,0.3194034739335097,0.11507830021018715
656996,0.4916401610092983,0.3166062667461697,0.48033020813015964,,,656996,0.5071957672473923,0.31939154789709323,0.1150736075153107
656997,0.4915971230876598,0.3165335969099761,0.48032910708791987,,,656997,0.5071891152574007,0.31938734238572875,0.11507458639559764
656998,0.49156711262555947,0.31645550206671175,0.4803246162229352,,,656998,0.5071879372993793,0.3193750380969309,0.1150718474242339
656999,0.49155075652685265,0.3163721650046947,0.480320361991065,,,656999,0.5071786183188433,0.3193658133371333,0.11506849413175925
657000,0.49154871073044215,0.3162852270853492,0.48031857467371525,,,657000,0.5071856812815312,0.31934972391720057,0.11506768421567476
657001,0.49155912947084673,0.3161972540226087,0.4803200142774602,,,657001,0.5071827666977693,0.3193444350192173,0.115069256330518
657002,0.49158273238493866,0.3161067456434627,0.48032205273393935,,,657002,0.5071908372960838,0.31932805738661496,0.1150712769907853
657003,0.4916156118364077,0.3160170295383998,0.4803261917322662,,,657003,0.5071936534853401,0.31931733916810023,0.1150748378073672
657004,0.49166097677201204,0.3159252044058417,0.48032832591860775,,,657004,0.5071997684385473,0.31930592763185234,0.11507603553119239
657005,0.4917180278857266,0.3158303511342596,0.4803326125839824,,,657005,0.5072082581788866,0.31930042378065526,0.11507909743247391
657006,0.4917852126051653,0.3157391596999321,0.4803342080395441,,,657006,0.5072127292772719,0.3192808767045759,0.11507872630212986
657007,0.49186402039651267,0.3156484109232474,0.48034026499000615,,,657007,0.5072225799542285,0.319273276457522,0.1150826929022941
657008,0.49195101058194685,0.3155591271724674,0.480344190443007,,,657008,0.5072320102415317,0.31926399334398003,0.11508416801337601
657009,0.4920456423182127,0.31546839527857384,0.48034497342764876,,,657009,0.5072436989421227,0.3192503303869899,0.11508228027252826
657010,0.4921572811392543,0.3153796518888292,0.48035040160751064,,,657010,0.5072558370774751,0.3192413194983382,0.11508441619264384
657011,0.4922768927827339,0.31529200838942334,0.4803565657751079,,,657011,0.5072696821470417,0.31923060425882643,0.1150870451483595
657012,0.49240254266524164,0.3152026776971094,0.48036190045264593,,,657012,0.5072882944980008,0.3192204322704424,0.11508886420468861
657013,0.4925384689730703,0.3151100071537189,0.48036036332659354,,,657013,0.5073018450799336,0.31919997864678495,0.1150831619734939
657014,0.4926822957971733,0.3150152091079784,0.4803655776674516,,,657014,0.5073191053495103,0.3191969514677654,0.1150843219121027
657015,0.492830943165358,0.31491924500513346,0.48036555133049647,,,657015,0.5073365110082817,0.3191807969516486,0.11507998270534364
657016,0.4929875624340313,0.3148190148740602,0.4803702086001569,,,657016,0.5073603176626496,0.3191720577146273,0.11508046894900545
657017,0.4931535791623892,0.31471369744143013,0.4803765675790413,,,657017,0.5073772515413513,0.319157371306397,0.11508208380481655
657018,0.4933223357757931,0.31460480881442177,0.48037964514642195,,,657018,0.5073993271799647,0.3191480059662102,0.11508070367261139
657019,0.4934955213105957,0.31449579510582937,0.4803860628753269,,,657019,0.5074223048201929,0.3191383486045889,0.115082613169021
657020,0.49367246054057656,0.3143848006793623,0.48038716372247814,,,657020,0.5074402078324068,0.31912389077584147,0.11507892520491435
657021,0.4938560738976772,0.31427385529149027,0.4803943223658118,,,657021,0.5074617523619323,0.3191071599263128,0.11508124615709744
657022,0.494044210816181,0.3141619111935084,0.4804042730015414,,,657022,0.5074885103877089,0.31909669834976373,0.11508657885849405
657023,0.4942322139494725,0.314054113099282,0.48041309539734933,,,657023,0.5075084196721537,0.3190766138361762,0.1150904492101789
657024,0.49442104176604673,0.3139470124102006,0.48041961750250783,,,657024,0.5075292682181511,0.31906456127404076,0.11509222452171014
657025,0.4946134763465612,0.31384479112510255,0.4804249644315697,,,657025,0.5075573539159954,0.31905461528892576,0.11509301573985034
657026,0.4948095267936099,0.3137485488788531,0.480431524681904,,,657026,0.507579855599692,0.31903981985565166,0.11509463888623969
657027,0.49500188913562704,0.3136544352147443,0.4804370040703711,,,657027,0.5076007163426901,0.3190317886306274,0.11509542062757874
657028,0.49520296172139655,0.31356662273732927,0.480443312699975,,,657028,0.5076216385218472,0.3190193394604593,0.115096678233332
657029,0.4954013660122145,0.31348376442661513,0.48044783593225776,,,657029,0.5076505646132766,0.3190042133126359,0.11509649715413285
657030,0.49560200083679873,0.3134049881148377,0.48045386820795777,,,657030,0.5076736118571813,0.31899172511979146,0.11509762623821981
657031,0.4958033993187906,0.3133337754248259,0.4804636245981805,,,657031,0.5077058875383897,0.31898154620135255,0.1151027722498786
657032,0.4960045853180356,0.31326879602064023,0.48046769624863706,,,657032,0.5077279911891144,0.3189751467138141,0.11510196402161495
657033,0.496206574439927,0.31320503076224493,0.48047164485027744,,,657033,0.5077527158109358,0.31896540042083377,0.11510111548306545
657034,0.4964646270158747,0.31311619684292885,0.4804676406357449,,,657034,0.5077923693488953,0.31894332770637396,0.11509133356483389
657035,0.4966689359285365,0.31306127346697393,0.4804703023966182,,,657035,0.5078107974551112,0.3189354882474541,0.11508903373102966
657036,0.49687197067938216,0.3130112103909707,0.4804734399928444,,,657036,0.5078340511346842,0.31893631003783346,0.11508755499520815
657037,0.4970766745965829,0.3129655085677999,0.480474048273123,,,657037,0.5078591900764329,0.3189262721553756,0.11508340029945174
657038,0.49727890600432223,0.3129227523189291,0.48047936143241554,,,657038,0.5078873645491782,0.31892328230378897,0.11508426948885575
657039,0.497480585086964,0.3128866734997108,0.4804831538928743,,,657039,0.507911750336896,0.3189163063391619,0.1150834367493198
657040,0.49768282278892956,0.312854984098218,0.4804912760240927,,,657040,0.5079425549297739,0.31891091417258055,0.11508714006423215
657041,0.4978830298130379,0.3128317117003172,0.48049906835116307,,,657041,0.5079675011369651,0.3189094338753907,0.11509041533304
657042,0.4980820368462544,0.3128127441890023,0.48050919492291233,,,657042,0.5080020280991919,0.3189006171876855,0.11509620863871761
657043,0.498274934286163,0.3128005550229892,0.4805131485150886,,,657043,0.5080215454737516,0.3188972948327903,0.11509564441424625
657044,0.49846897920217725,0.3127904769703453,0.4805190180876412,,,657044,0.5080463676205453,0.31889842861488304,0.11509722682851109
657045,0.49866278170023065,0.312787839375568,0.4805242047196589,,,657045,0.5080756956658011,0.31889638876978416,0.11509814975885735
657046,0.4988566024409379,0.3127898091964282,0.4805250527236574,,,657046,0.5081018538060633,0.3188932859937986,0.1150946327153893
657047,0.49904631711287195,0.31279191936254414,0.4805279972526111,,,657047,0.5081282147322825,0.31888803815658295,0.11509335817125771
657048,0.49923614067179023,0.312802515240558,0.4805333705687141,,,657048,0.5081518954080203,0.3188935613008699,0.1150945556562665
657049,0.4994261360141017,0.3128141079475431,0.48053740624066565,,,657049,0.5081779351946311,0.3188921551552773,0.11509441161293466
657050,0.4996171915936367,0.31282768162356384,0.48054421805878234,,,657050,0.5082001431521409,0.31889830394467944,0.11509709540433
657051,0.49980582206143637,0.3128467672876238,0.48054862106881724,,,657051,0.5082251071804396,0.31889662790868,0.1150973468970197
657052,0.49998989126918764,0.3128710316942413,0.4805537302338332,,,657052,0.5082486496780183,0.3188998133417588,0.11509844477385965
657053,0.500174696589381,0.3128991389227598,0.4805591750929775,,,657053,0.508278106435389,0.3189000831022871,0.11509995385610511
657054,0.500361270042232,0.31292924792134036,0.48056513351589986,,,657054,0.508296702474502,0.31890405807939,0.11510179811147425
657055,0.5005411473481707,0.31296336578466544,0.48056975575787064,,,657055,0.5083177404979695,0.3189118120723512,0.11510257589764755
657056,0.5007189886169235,0.313005165582417,0.480572428090819,,,657056,0.508339277369479,0.31891076402312263,0.11510126086196035
657057,0.5008962759649974,0.3130508152769397,0.48057571366517815,,,657057,0.5083642475290524,0.3189204406227219,0.11510082277900766
657058,0.501073652300102,0.3131013559566396,0.48058022236661035,,,657058,0.5083850372464882,0.31892666699711963,0.11510145640244804
657059,0.5012496155232034,0.31315863742088945,0.4805846408027097,,,657059,0.5084066733638597,0.31893643398524274,0.11510206589774105
657060,0.5014212246667759,0.3132200907704389,0.4805914681003197,,,657060,0.5084270500980734,0.3189406863893961,0.11510506320264065
657061,0.5015878884692383,0.31328426422450506,0.4805948563302873,,,657061,0.5084448791827234,0.3189499088986736,0.1151047728560283
657062,0.5017521582793277,0.3133494425437079,0.4805996459974816,,,657062,0.508468817435697,0.3189493714115492,0.11510594392357204
657063,0.5019121914834505,0.3134124341224279,0.4806051591796453,,,657063,0.5084867442023411,0.31896262561074706,0.1151081145948373
657064,0.5020707432843551,0.3134766643514533,0.48060882230979285,,,657064,0.5085107800483559,0.3189713605141714,0.11510854432111975
657065,0.5022253824027674,0.31353559530734504,0.48061293022004964,,,657065,0.5085297427748221,0.31897398934547094,0.1151094447649518
657066,0.502373193080397,0.31359905502727536,0.48061535750361584,,,657066,0.5085473387151713,0.31898281828256536,0.1151088404780897
657067,0.5025182488984852,0.31365604838590083,0.4806174525706227,,,657067,0.5085585650090256,0.31898771834068407,0.11510793580530296
657068,0.5026577030629233,0.3137053691603419,0.48062013849980467,,,657068,0.5085801698301391,0.3189936072382899,0.11510806223602141
657069,0.5027904133609014,0.31375093378973934,0.4806211172613275,,,657069,0.5085927440606066,0.31900023226748303,0.11510655285495214
657070,0.5029137470529172,0.313791156886815,0.48062379823515045,,,657070,0.508612936790712,0.3190081900100375,0.11510714913286475
657071,0.5030281132659746,0.3138266681885768,0.48062182291544825,,,657071,0.5086231004887741,0.319009444766417,0.11510307659159616
657072,0.5031330638380793,0.31385968593467106,0.48062451437818754,,,657072,0.5086389627168172,0.3190164799179302,0.1151040477520477
657073,0.5032264229848519,0.3138894063558098,0.4806280810575415,,,657073,0.5086545630395867,0.3190201845298082,0.11510608530336665
657074,0.5033155070091377,0.313919583334506,0.48063450752622267,,,657074,0.5086623347866512,0.3190219599235288,0.11511091573617005
657075,0.503390310104919,0.3139474287730361,0.4806359354137077,,,657075,0.5086668700013564,0.31902620931888886,0.11511099389389025
657076,0.5034593784262733,0.313976583190259,0.48064137725606265,,,657076,0.5086845268178873,0.3190330725176965,0.11511538815377365
657077,0.5035188883476588,0.3140094656460806,0.48064258955349803,,,657077,0.5086891271210906,0.3190374991460787,0.11511542711630204
657078,0.5035665892543714,0.3140431039869509,0.4806404934303785,,,657078,0.5086890484972447,0.31904490769673,0.11511229843005635
657079,0.5036077237661845,0.3140755744489819,0.48064209932918467,,,657079,0.5086975730484027,0.31905209890050507,0.11511310375166911
657080,0.503639135341859,0.3141090603597452,0.48064521127034104,,,657080,0.508703127553944,0.31905240699557647,0.11511540636224116
657081,0.5036625457200992,0.3141422721605313,0.4806462426693884,,,657081,0.5086976261090823,0.31905997100042244,0.1151156924101301
657082,0.5036792920007899,0.31417259513823403,0.48064657427562996,,,657082,0.5087070385953283,0.31906052385901607,0.1151155237665913
657083,0.5036876222881048,0.31419982075535174,0.4806428353267145,,,657083,0.5087114480200495,0.31906920964467445,0.1151114834619269
657084,0.5036906301545867,0.31422271942970187,0.4806424817674976,,,657084,0.508709854338484,0.31907129804411727,0.115110790059034
657085,0.5036851903636888,0.314244098835157,0.48063874870363565,,,657085,0.5087060351503178,0.31907320848461757,0.1151068215250899
657086,0.5036765486448262,0.31426038909096776,0.48063747300082454,,,657086,0.5087049484540651,0.31907872234276435,0.11510550746392015
657087,0.5036648706902824,0.3142725292324677,0.4806380942771588,,,657087,0.508703365771781,0.3190827022312739,0.11510616027921819
657088,0.5036489245426896,0.3142795592940321,0.48063738438817327,,,657088,0.5087023356745424,0.3190791962569087,0.11510551780169259
657089,0.5036307915320606,0.3142795716721214,0.4806354169297017,,,657089,0.5087043257574312,0.3190841817577619,0.1151038944290716
657090,0.503609295329118,0.3142763941498779,0.48063242277459106,,,657090,0.5086957651200286,0.31908381561337074,0.11510111701107914
657091,0.5035843893375048,0.3142654103712017,0.480632759405609,,,657091,0.5086932522123129,0.3190833844140628,0.11510190487279634
657092,0.5035542420178282,0.3142499071497809,0.48063469079547616,,,657092,0.5086910964847728,0.3190830608117844,0.11510442895508566
657093,0.5035187949738626,0.3142270661747961,0.48063567674055285,,,657093,0.5086892998028056,0.31907693639587387,0.1151061107573178
657094,0.5034782935114858,0.3142014533981194,0.48063742232990125,,,657094,0.5086802926693788,0.31907432021222526,0.11510860904288706
657095,0.5034336711150788,0.3141719150054457,0.4806389612080343,,,657095,0.5086741059249389,0.319071677354674,0.11511105647138585
657096,0.5033803767086116,0.3141395442668846,0.4806402515671968,,,657096,0.5086693872835923,0.3190662806357307,0.115113409043793
657097,0.5033215879735263,0.3141029799992562,0.48063777428249665,,,657097,0.5086566910546524,0.31906197714039863,0.1151120378538459
657098,0.5032591854419932,0.31406518220169843,0.48063739399588234,,,657098,0.5086521285802303,0.3190609605232927,0.11511300721367485
657099,0.503193853021922,0.31403015796642114,0.4806363657932276,,,657099,0.5086432394223126,0.31905714803833907,0.11511324405136605
657100,0.50312639800377,0.31399726910890124,0.4806337468858771,,,657100,0.5086398224829236,0.31904918179856084,0.11511192907204501
657101,0.5030544118782254,0.31396981035622684,0.4806314681240506,,,657101,0.5086270096608636,0.31904710649597956,0.1151108993634105
657102,0.5029840321410215,0.3139450244233384,0.480630676922781,,,657102,0.5086216488775939,0.3190411155336441,0.11511136675960171
657103,0.5029126863500009,0.3139259568594116,0.4806261610905323,,,657103,0.5086079067114255,0.31903912705574056,0.1151079824388847
657104,0.5028445870022855,0.313911227897143,0.48062651006910984,,,657104,0.5085994500326441,0.31903831066824745,0.11510946047634504
657105,0.5027775024725111,0.313899276368143,0.48062189389171317,,,657105,0.5085932710539818,0.3190371602104384,0.1151059599645185
657106,0.5027103084705259,0.31389281026897636,0.4806166906469329,,,657106,0.5085786888202869,0.31903679689173525,0.1151016834544305
657107,0.5026440919231516,0.3138903482356949,0.4806168608378031,,,657107,0.5085782765589504,0.3190329599028531,0.1151028967171574
657108,0.5025809003273676,0.3138889612451876,0.48061356489758666,,,657108,0.5085662876784762,0.3190315978002659,0.11510043599965075
657109,0.5025177175160519,0.3138916021542068,0.48061325573714997,,,657109,0.5085599590703063,0.3190333175278849,0.11510104930724745
657110,0.5024599469944158,0.3138970793103198,0.48060919119093537,,,657110,0.5085565926078286,0.31902889620818276,0.1150977490487901
657111,0.5024110789118308,0.3139074792476549,0.48061133446943965,,,657111,0.5085459566071427,0.31903260040843373,0.11510043808194405
657112,0.5023677269440248,0.3139203372459517,0.48061004860625867,,,657112,0.5085377784299896,0.3190337707973,0.1150995805876038
657113,0.5023336307986097,0.3139336952208558,0.4806130977063172,,,657113,0.5085399142004274,0.31903593873568514,0.115103086726192
657114,0.5023089695811682,0.31395019017863957,0.48061578950683176,,,657114,0.5085354748019963,0.3190338507225793,0.1151058635165125
657115,0.5022915682895751,0.31396497600589796,0.4806189408633765,,,657115,0.5085321619528695,0.3190383393327645,0.1151091120700555
657116,0.5022826643867428,0.3139828833703714,0.48061886551139965,,,657116,0.5085341024464791,0.31903505455547454,0.1151089284949878
657117,0.5022823632847786,0.31400214184662667,0.4806172885243425,,,657117,0.5085365233562034,0.3190411740198642,0.11510721669895804
657118,0.5022903278702194,0.3140172218227223,0.4806166383710485,,,657118,0.5085358983664898,0.31903934291984504,0.11510618692252765
657119,0.5023067596555784,0.3140341956124957,0.48061653649081637,,,657119,0.5085391354632667,0.3190451835120983,0.1151057070188274
657120,0.5023330094679843,0.31404776666880907,0.4806165581506522,,,657120,0.5085389399752875,0.3190442998563603,0.11510508083169875
657121,0.5023684791214637,0.3140613163675437,0.480616732246416,,,657121,0.50854670546044,0.31904736511301945,0.1151046424238607
657122,0.5024138408787431,0.31407229174283663,0.48061780913351804,,,657122,0.5085538697676721,0.3190460118337259,0.1151049076882473
657123,0.5024679318704921,0.31408143460606464,0.4806198562104369,,,657123,0.5085570091153262,0.31905030289617187,0.11510603642319335
657124,0.5025301607555763,0.3140895760240219,0.4806230254885854,,,657124,0.5085700408404987,0.3190511593227421,0.1151082904792165
657125,0.5025997615748737,0.3140916025247886,0.4806225344635842,,,657125,0.5085802399164292,0.3190482875059138,0.11510675625142044
657126,0.5026749889768443,0.31409412148689897,0.4806234124272889,,,657126,0.5085854460041486,0.31905037133626724,0.11510648935203821
657127,0.5027539879241573,0.3140940913374988,0.48062506274655425,,,657127,0.508599323977794,0.3190518696506915,0.115107113187498
657128,0.5028380457608208,0.31409212112643453,0.4806256382469089,,,657128,0.5086070652136416,0.3190499243690389,0.11510647654563749
657129,0.5029224470380813,0.3140894524529808,0.48062555330949425,,,657129,0.5086157947717012,0.31904774582601314,0.1151052117583698
657130,0.5030102649071174,0.3140876387624014,0.48062822227632973,,,657130,0.5086289426498393,0.31904956074477153,0.1151067745336509
657131,0.5030978658498131,0.3140857534591398,0.4806299717996083,,,657131,0.5086464052113456,0.31904668794301744,0.11510743923938455
657132,0.5031878549926889,0.3140885924932625,0.4806296669865988,,,657132,0.5086545969779432,0.3190494462951267,0.1151059008223961
657133,0.5032768248520224,0.31409463909955104,0.4806279766059728,,,657133,0.508665156375576,0.3190475492582774,0.1151029384299382
657134,0.5033665680099921,0.31410289460586893,0.4806292053900283,,,657134,0.5086771070443119,0.31904830441375814,0.11510292717430745
657135,0.5034543882525824,0.31411209772910104,0.4806295585884063,,,657135,0.5086849652040321,0.31905294079467206,0.1151020656363768
657136,0.5035398761883487,0.3141271556549058,0.48063160703348956,,,657136,0.5086931218456483,0.3190544175029342,0.115102832353416
657137,0.5036228732816348,0.31414357310851293,0.4806358745072659,,,657137,0.508710840130751,0.3190523651725887,0.11510593685091805
657138,0.5037026975883173,0.3141610216183954,0.4806355503541302,,,657138,0.5087181966290129,0.31905948183161104,0.11510447256983031
657139,0.5037779727605403,0.314180433142736,0.48063656251229075,,,657139,0.508729447463252,0.31905871227389676,0.11510434196227345
657140,0.5038484095357083,0.31419672833808443,0.4806363303050747,,,657140,0.5087352938692911,0.3190607812006538,0.11510305094394749
