field.frameNumber,field.x_m,field.y_m,field.z_m,,,field.frameNumber,field.x_m,field.y_m,field.z_m
690341,0.11648397077738325,0.3111828596923974,0.4800006923549216,,,690341,0.1233736504557206,0.31765765026855486,0.11452466253878671
690342,0.11640692674282375,0.3112336524675696,0.4800005724115205,,,690342,0.123366986046444,0.31766777954006326,0.11452515798184275
690343,0.11633025567537936,0.31128340121829984,0.4799974782621454,,,690343,0.1233518583662741,0.31767688754639706,0.1145225278244126
690344,0.1162567474231421,0.311335555031053,0.47999510229376463,,,690344,0.1233372292019633,0.3176765033153947,0.11452037249446005
690345,0.11618515441235305,0.3113887461596054,0.47999170207432396,,,690345,0.12333022949418496,0.31768882317189495,0.11451752254729666
690346,0.1161151460973522,0.3114388299678319,0.47999003564146103,,,690346,0.12331708637795219,0.3176913374351902,0.11451615534930529
690347,0.11604487469880229,0.31148532891460495,0.47998843990080936,,,690347,0.12330812090076905,0.3176991086034338,0.11451511232979786
690348,0.1159789203253236,0.3115312891528418,0.4799905796951116,,,690348,0.12329696018564365,0.31770603872115155,0.11451768366913954
690349,0.11591324157068825,0.3115755208420788,0.47998830496566913,,,690349,0.1232878930971283,0.31771103636795195,0.11451588612488305
690350,0.11584928463248151,0.31161725163595755,0.47998843729013907,,,690350,0.12328195179667426,0.31771881304641103,0.11451662527665375
690351,0.11578548828953815,0.3116551151506661,0.4799872977030132,,,690351,0.12326960587622235,0.3177246577003927,0.1145160025149707
690352,0.11572400754231901,0.31169094786544616,0.4799889092505827,,,690352,0.1232600322094051,0.31773045169395797,0.1145181830700005
690353,0.11566544204348034,0.31172299807808046,0.4799869679051507,,,690353,0.1232501467130013,0.31773703892119115,0.11451682885538761
690354,0.11561030181203624,0.3117563575274967,0.47998674505134176,,,690354,0.12324255667883205,0.3177393281249321,0.1145170859581167
690355,0.11555640211719029,0.31178585041642326,0.4799867069224169,,,690355,0.1232363450016934,0.31774531735697176,0.1145176628156486
690356,0.11550697073785765,0.31181878674801755,0.47998733683809347,,,690356,0.12322802215468326,0.31775212993387913,0.1145187338461304
690357,0.11545824595762184,0.3118488016937445,0.47998539271079854,,,690357,0.12322153689192056,0.3177535858684363,0.11451722199416911
690358,0.11541490894220605,0.31187997238509846,0.47998265050836464,,,690358,0.12321716244118346,0.31775662296386764,0.1145148560482339
690359,0.11537619464450746,0.3119105619876012,0.47998414396672207,,,690359,0.1232116172917731,0.31775988346381423,0.11451662070446796
690360,0.1153454156579642,0.3119378617095098,0.47998186654306363,,,690360,0.12320477081341522,0.3177640818308666,0.1145144881563223
690361,0.11531623160169714,0.3119653478649923,0.47998333226374434,,,690361,0.12319858862151176,0.3177659574746109,0.11451604187347064
690362,0.11529415172457645,0.3119936433753671,0.479984212432814,,,690362,0.1231989411114108,0.31776871903733583,0.1145170021730042
690363,0.11527749468789131,0.3120180467152325,0.4799831066120299,,,690363,0.12319838676755585,0.3177703259790239,0.11451588548108735
690364,0.11526541720516766,0.31204047636338295,0.4799835259413672,,,690364,0.12319658481675286,0.3177717838509099,0.1145161981758883
690365,0.1152577412533217,0.3120613559063469,0.47998399624855315,,,690365,0.12319511877464641,0.31777883211448116,0.11451658665758435
690366,0.11525482610874149,0.31208146671361514,0.479982859726068,,,690366,0.12318901764794335,0.3177784631837754,0.11451506113763174
690367,0.11525650137240945,0.31209814091923777,0.47998291408271687,,,690367,0.1231902229430043,0.31777968468517004,0.11451486473815964
690368,0.11526471739052016,0.3121112012296151,0.47998275293628373,,,690368,0.12319312030615145,0.317782689074227,0.1145144319807248
690369,0.115280411772785,0.31211981033045477,0.4799804650377783,,,690369,0.12319478527416229,0.31778301857397717,0.11451171160773355
690370,0.11530067046240361,0.31212569600704865,0.4799800350265901,,,690370,0.1231915054307211,0.3177875319122095,0.1145107513556837
690371,0.11532782188756881,0.3121278019913554,0.4799823219948922,,,690371,0.12319708455796269,0.3177873961067158,0.114512538471393
690372,0.1153629894555795,0.31212503594041197,0.4799832955178591,,,690372,0.12319910213380875,0.3177863069824556,0.11451282568818574
690373,0.115403498045026,0.312117903375239,0.47998665657028283,,,690373,0.12320865400038986,0.31778613498391484,0.11451563219190264
690374,0.1154465311234278,0.3121083969021013,0.4799882930841015,,,690374,0.12321552725241235,0.3177894691002888,0.11451669762548536
690375,0.11549778851711186,0.31209575129467293,0.479990596063426,,,690375,0.12322278432749076,0.317785444420952,0.11451820202921434
690376,0.1155533694476237,0.31208121679633755,0.47999016855579624,,,690376,0.12323260687146839,0.31778757409138164,0.11451706999962474
690377,0.1156135056122139,0.3120651858210827,0.4799909952254492,,,690377,0.1232443933481765,0.3177835922434683,0.11451707228485244
690378,0.1156792445945237,0.3120465515464165,0.4799915766345687,,,690378,0.1232455695880815,0.3177814751434851,0.11451657017493785
690379,0.1157519334412242,0.31202790490471344,0.4799896507400016,,,690379,0.12325377334066405,0.31777389726509125,0.11451348880990095
690380,0.11582930462982391,0.31201437926098663,0.4799927921218542,,,690380,0.12326312493885619,0.3177729420815836,0.1145154381871762
690381,0.11591121371055904,0.3120002921854418,0.4799933055807205,,,690381,0.12327334398585785,0.3177694199175449,0.11451466711841621
690382,0.11599717729275286,0.311987790223774,0.47999373723221345,,,690382,0.12328649834449876,0.31777225014728416,0.1145138817117792
690383,0.11608791021680306,0.31197643884470694,0.47999471656949744,,,690383,0.1233036409646331,0.3177676501907045,0.11451350765423679
690384,0.1161798262829514,0.3119658579710707,0.4799983956337764,,,690384,0.1233178933936698,0.31777380856618553,0.1145159272757891
690385,0.11627444066095845,0.31195584185523884,0.4800015259892691,,,690385,0.12332739170717916,0.31776895951710715,0.1145174873311787
690386,0.11636935214070857,0.3119495584033572,0.48000125091109247,,,690386,0.12333682785100986,0.3177681693977654,0.1145156601998282
690387,0.1164665950764746,0.3119396744817784,0.47999984527035866,,,690387,0.1233517965488574,0.317766793639798,0.11451283092888764
690388,0.11656710615296086,0.31193453285530964,0.47999892527703436,,,690388,0.12336197526725445,0.31776643372794433,0.11451029665068295
690389,0.11666676160751369,0.31192815198944857,0.48000073817877653,,,690389,0.12337157152629435,0.31777124291745534,0.1145106250681758
690390,0.11676565742589155,0.3119227330508604,0.4800017251914306,,,690390,0.123384306234036,0.3177684684893113,0.11451008392671205
690391,0.1168657158624465,0.31191655643825483,0.4800074686450868,,,690391,0.12339733522693655,0.31776574255781115,0.11451431694528315
690392,0.11696220735043794,0.31191396618478645,0.4800132306525991,,,690392,0.1234149665157229,0.3177652312498549,0.11451871145219755
690393,0.11705893637414495,0.31191028792181774,0.48001534953955716,,,690393,0.1234286370267907,0.3177646981768838,0.114519423757339
690394,0.11715383386005976,0.3119058861097235,0.4800174629447528,,,690394,0.12344572564233175,0.3177607245034544,0.11452019628681584
690395,0.11724699132564195,0.31190100824686884,0.48001674872928457,,,690395,0.1234608162761733,0.31776168527211146,0.1145182400954879
690396,0.11733939093339245,0.31189597145923426,0.4800226944078585,,,690396,0.12347205201785993,0.3177619119463807,0.11452289936076965
690397,0.11743485971032366,0.31189326211024176,0.4800274758435896,,,690397,0.12348110305945255,0.3177662954757491,0.1145263549291794
690398,0.1175262045351305,0.31188965490313353,0.48002676914694264,,,690398,0.12348745790054794,0.31775973127623447,0.1145242046813471
690399,0.11762007491744104,0.3118876458429196,0.48002631104936366,,,690399,0.1235021417307608,0.31776587373173404,0.11452259465768265
690400,0.1177109580131018,0.3118842379154718,0.4800250020420749,,,690400,0.12350482312331496,0.31777227818899134,0.11452003480077774
690401,0.11780426032946084,0.311879328290691,0.4800255538902572,,,690401,0.1235158976627341,0.3177679443070609,0.11451930172810265
690402,0.11789514218636715,0.31187247729157164,0.4800261672274489,,,690402,0.12352955753113425,0.3177663860636401,0.11451880181281224
690403,0.1179867504365831,0.3118634574916382,0.48002829548291176,,,690403,0.123534919015685,0.3177724853395788,0.11451985483543545
690404,0.11807729986395515,0.31185515646087714,0.4800294937890801,,,690404,0.12354446397596089,0.3177787174690074,0.11452006776726745
690405,0.11816650966373615,0.31184055308993464,0.480029881036808,,,690405,0.1235516509986089,0.31778665829770986,0.11451960340442574
690406,0.1182538030512171,0.3118209711744199,0.4800296728219098,,,690406,0.12355357756863444,0.3177907719324652,0.11451853367808926
690407,0.1183440385015204,0.3117987368970846,0.48003239936295306,,,690407,0.1235626576109781,0.3177920745133127,0.11452047768590584
690408,0.11842732355701274,0.31177165466302426,0.4800334695705879,,,690408,0.12357087067420394,0.317789818287187,0.11452089167635775
690409,0.11850912903817334,0.3117406251138062,0.48003530156504626,,,690409,0.1235783915260529,0.31779280149902855,0.114522247477958
690410,0.11859117737557495,0.3117033351501216,0.4800354741399354,,,690410,0.12358229941504459,0.31778821246189715,0.11452188760979395
690411,0.1186734235041571,0.3116620306924091,0.4800344182559399,,,690411,0.12358947599887894,0.3177843831388696,0.11452044014069729
690412,0.1187534793936336,0.3116195037180992,0.4800351071920996,,,690412,0.12360220822311804,0.31778403159164814,0.11452093866497676
690413,0.11883403089895231,0.311574837571463,0.4800336334670877,,,690413,0.1236072973831014,0.3177784796514399,0.11451913345203435
690414,0.11891641496048594,0.3115285007767036,0.480035546785043,,,690414,0.12362372941696656,0.317773500124844,0.11452089572028876
690415,0.1189926681790887,0.3114828416812196,0.4800366925595939,,,690415,0.12363411125072574,0.3177677156037104,0.1145218825515304
690416,0.11907144867751975,0.3114350917014891,0.48003947666225105,,,690416,0.12364500514231264,0.31776213667641773,0.11452453845535895
690417,0.11914757353247615,0.3113904259988837,0.48003769059108314,,,690417,0.12366133701212034,0.3177570408888911,0.11452269620189015
690418,0.1192190694424661,0.3113464639933283,0.4800379313645321,,,690418,0.12366484652559895,0.31775047109193433,0.1145227569484106
690419,0.11928693979428295,0.31130166599446246,0.48003658186640774,,,690419,0.12367311114895946,0.31774487475880725,0.11452137625806925
690420,0.11935315894109175,0.31125616918451904,0.4800373611291131,,,690420,0.12368416509102689,0.3177372103602203,0.1145221665608877
690421,0.11941942276636,0.31120614548403885,0.480036605309234,,,690421,0.12369142979298756,0.3177269689643244,0.11452142397425445
690422,0.11948450518907369,0.3111561379785929,0.4800408258126224,,,690422,0.12370041982432939,0.3177238973641836,0.11452583354871976
690423,0.11954698043463956,0.3111031853377221,0.4800450122364599,,,690423,0.12371250412430759,0.31771470538046265,0.114530231161392
690424,0.1196061048888365,0.3110486811039958,0.48004122061181576,,,690424,0.12372201846549685,0.3177102065521139,0.11452678546133765
690425,0.11966527055254525,0.31098909774218186,0.4800404447598507,,,690425,0.1237323447159519,0.31770243720032254,0.1145264108975259
690426,0.1197152616824228,0.31092956271872085,0.4800390110049229,,,690426,0.12373180876655185,0.31769337940643005,0.11452534901323269
690427,0.11976498983615234,0.31086423869706914,0.4800414482148009,,,690427,0.12373578337763555,0.3176817256500837,0.1145282834183246
690428,0.11981101245038805,0.3107957540546877,0.48003988236850403,,,690428,0.12373847216774425,0.31767643967056447,0.1145274336135218
690429,0.1198535971700008,0.31072472759389635,0.4800410700977771,,,690429,0.12374413888717145,0.3176713658859187,0.11452947401520899
690430,0.1198924377577377,0.31064896239384576,0.480035654530253,,,690430,0.12374529687652505,0.31765694179280857,0.11452483024375665
690431,0.11993228799794736,0.3105689294098541,0.48003355521506197,,,690431,0.1237490306613189,0.31764965035011306,0.11452375392972394
690432,0.1199698827066036,0.31048798485530865,0.48003562751991213,,,690432,0.12376217734216674,0.3176434305768985,0.1145270269820287
690433,0.12000500900028785,0.3104057592745993,0.480035460418505,,,690433,0.12376292781815534,0.3176330914451841,0.11452791920342426
690434,0.12004031761922446,0.31032009541163696,0.4800308104499643,,,690434,0.12376845919773724,0.3176180699579969,0.1145243679662089
690435,0.12006965430060534,0.31023620517134415,0.48002797601180636,,,690435,0.12377177428814135,0.317608671570266,0.11452276398872971
690436,0.12009838707235035,0.3101523242276857,0.4800240783220171,,,690436,0.1237729215626563,0.3175969524219655,0.114520050606086
690437,0.12012964381728385,0.31006912317762436,0.4800244543516614,,,690437,0.12377748336997835,0.3175882848296544,0.11452168494506985
690438,0.1201571286451813,0.3099862992457117,0.48002401814934237,,,690438,0.12383402584601345,0.31751974738615213,0.1145218340856497
690439,0.12018238430195251,0.30990688101638,0.4800213715822216,,,690439,0.1238308384265645,0.3175095497845448,0.1145203357706363
690440,0.12020540914077515,0.3098284913840383,0.48002039446552563,,,690440,0.12383836971005505,0.3174992483636615,0.11452062694972925
690441,0.12022365420906625,0.3097514142200694,0.480020440115063,,,690441,0.12384465357808035,0.31749055185362607,0.11452199541044045
690442,0.12023904536840654,0.30967377364252896,0.48001829478390473,,,690442,0.12384425215413719,0.31747798110862024,0.11452107755907
690443,0.12025313654995015,0.3095972948477871,0.4800182836009188,,,690443,0.1238516301841584,0.3174665201102658,0.11452239428535825
690444,0.12026599486796505,0.309521635705547,0.4800154035627229,,,690444,0.12384868191186539,0.317460129377587,0.1145208568988854
690445,0.12027601063944665,0.3094489188687912,0.4800170164928188,,,690445,0.12385537721570415,0.31745007984791707,0.11452380379641525
690446,0.12028461362791926,0.30937426181897404,0.48001713828445425,,,690446,0.12385131890595269,0.31743854225137436,0.1145251890382267
690447,0.1202959916346058,0.30930108185616423,0.4800155056742399,,,690447,0.12385842725599874,0.317423244324266,0.1145247964920162
690448,0.1203055443791583,0.3092294783752845,0.4800140330949034,,,690448,0.12385133988853941,0.31741906335922476,0.11452466662682664
690449,0.12031364097184571,0.3091576658175891,0.4800118136868339,,,690449,0.12385671041656089,0.31741071266324955,0.11452384829547821
690450,0.1203188945151612,0.30908858831273617,0.4800078939861162,,,690450,0.12385630768144928,0.31739719792033705,0.11452113268863914
690451,0.12032605578060475,0.309019564284732,0.4800055412065012,,,690451,0.1238568485532306,0.3173863590455446,0.11452004324924055
690452,0.1203332956596331,0.30895255451508136,0.48000768155605805,,,690452,0.12385653040497879,0.31737929694269396,0.11452348791941465
690453,0.1203408286861293,0.3088924366646448,0.4800069997135247,,,690453,0.12386275619906495,0.3173701221386216,0.11452397159205696
690454,0.12035199182309106,0.3088332902581214,0.48000404185232465,,,690454,0.12386783198678286,0.3173597561492211,0.11452208988124465
690455,0.1203648689133711,0.30878000339385353,0.47999942616555563,,,690455,0.12386139712540095,0.3173545512118719,0.1145184138141359
690456,0.12037687999413596,0.3087283597886601,0.4799989952445223,,,690456,0.12386615498825834,0.31735277250814337,0.1145190868576193
690457,0.12039145568445539,0.3086826165759795,0.48000033762634503,,,690457,0.12387254701795786,0.3173461777204306,0.1145212771034968
690458,0.12041013669913805,0.3086393013976604,0.4799986953837292,,,690458,0.1238705052749206,0.3173430884177645,0.11452039382525381
690459,0.12042988783508715,0.308598218387798,0.47999926408903015,,,690459,0.12386978836359239,0.3173345171022478,0.1145215450166282
690460,0.12045092321160555,0.30856259460712643,0.4799976924462669,,,690460,0.1238798201838703,0.31733098077763017,0.11452063839395285
690461,0.1204747339290983,0.3085268494002486,0.4799948538278161,,,690461,0.12388081540775425,0.31732294974410813,0.1145182523921823
690462,0.12050388486050395,0.3084937311119371,0.4799944747985784,,,690462,0.1238835591235926,0.3173221917169914,0.11451840847622655
690463,0.1205305231125468,0.3084612593520399,0.47999397065440597,,,690463,0.12388299951253146,0.3173162859998391,0.11451829653327675
690464,0.12056289645348384,0.30843059037476905,0.4799935701380803,,,690464,0.1238900286023252,0.3173112569884301,0.1145182865395849
690465,0.1205925570402561,0.3084009822010932,0.47999139752796127,,,690465,0.1238846790807512,0.3173119242360248,0.1145165338043938
690466,0.12062749097626965,0.3083746374710006,0.4799922671567437,,,690466,0.12389630112798866,0.3173085086914711,0.1145177539626666
690467,0.12066252343506234,0.3083491558351374,0.47999265923338413,,,690467,0.12390352268095006,0.3173049045225994,0.1145184337966583
690468,0.12069944548269675,0.30832374151437897,0.47999019401202037,,,690468,0.12390491145774485,0.3173049196671035,0.1145162792162972
690469,0.12073464287661126,0.30830322166340185,0.47999100091663927,,,690469,0.1239093997090126,0.3172959014430957,0.11451710089274625
690470,0.12077266170079759,0.30827762574847206,0.47998975062868177,,,690470,0.12391661442582555,0.3173005131030727,0.11451632883950635
690471,0.12081401539037674,0.30825659865482063,0.4799900702622191,,,690471,0.12392103133247645,0.31729527820107994,0.1145167228164235
690472,0.12085371303325065,0.3082348759058384,0.4799905644552994,,,690472,0.1239218395444621,0.31729355618025146,0.11451738365999564
690473,0.12089724779299585,0.30821102517877436,0.47999038367177055,,,690473,0.12393398232198015,0.31728757591980794,0.1145173840681261
690474,0.12093994288233106,0.3081845326837599,0.4799883151294041,,,690474,0.12393889578833925,0.31728617338111853,0.11451562752152915
690475,0.1209854033692647,0.3081561714788233,0.4799894348691131,,,690475,0.1239433326836838,0.3172828290761083,0.11451703680803885
690476,0.12103356167159506,0.30812145996961326,0.4799917802278242,,,690476,0.12395536238435059,0.31728071163698596,0.11451990694791189
690477,0.12108246670053474,0.308084177345387,0.47999147172235757,,,690477,0.12395810249438735,0.31727215903737616,0.1145199534333828
690478,0.12113348204457135,0.3080461320522223,0.4799886579107403,,,690478,0.12396627066066475,0.31726302222248304,0.1145175329042831
690479,0.1211892028062459,0.30800960705978186,0.47997431571624294,,,690479,0.1238645078411636,0.317295729859662,0.11450375652500615
690480,0.12124831246996225,0.3079677605842343,0.4799733300233029,,,690480,0.123874062546662,0.3172955933304682,0.11450347361646784
690481,0.12130820614832165,0.3079229496915804,0.47997395661040704,,,690481,0.12388000995725035,0.31728961046385595,0.11450470966836254
690482,0.1213755306412182,0.30787580972224293,0.47997484346286046,,,690482,0.1238880158924256,0.31728429330892965,0.1145062581867782
690483,0.12144312754066164,0.30782668629757837,0.4799739171287055,,,690483,0.12389508529609411,0.31727660190938256,0.11450598971600495
690484,0.1215186252833231,0.3077727109785169,0.4799755093456318,,,690484,0.12390385826782846,0.3172734032242033,0.11450845682283325
690485,0.1215980124752753,0.3077126944399956,0.47997286210743373,,,690485,0.12391173141327275,0.3172691086892644,0.11450680264279345
690486,0.1216762464226209,0.30765142011665386,0.4799721941597568,,,690486,0.12391389136820155,0.31726894333432987,0.1145072640207698
690487,0.12176043399662431,0.3075840223776185,0.4799726649730609,,,690487,0.12392309401656555,0.3172670407359647,0.11450901284558915
690488,0.12184716832545009,0.3075133323437331,0.4799687327901768,,,690488,0.12392623162754154,0.3172650818122143,0.11450642304082714
690489,0.1219394863184513,0.3074421982857864,0.47996889656425706,,,690489,0.12392883167023021,0.3172594319332487,0.11450784063924871
