field.frameNumber,field.x_m,field.y_m,field.z_m,,,field.frameNumber,field.x_m,field.y_m,field.z_m
702768,0.16504378700358174,0.09306198044485456,0.47884667209198395,,,702768,0.17110419176130204,0.08561178282090601,0.11337453222524074
702769,0.16546054968957374,0.09283644188000155,0.4788601442370113,,,702769,0.17116107428165156,0.08559022765534315,0.1133781127114859
702770,0.16588680824052085,0.09260970031154181,0.4788707679275003,,,702770,0.17121810834945345,0.08555285922444364,0.1133794585886057
702771,0.16632632499908961,0.0923890481931882,0.47887569350506154,,,702771,0.17126447798408834,0.08552261655435026,0.11337523422917295
702772,0.16676264581122863,0.0921740569361095,0.47888722968401454,,,702772,0.17131893741553114,0.08549883867326685,0.11337826859386625
702773,0.1672178745637559,0.09195654601302021,0.47889577230478986,,,702773,0.1713837158829673,0.08546869315572006,0.1133787788549028
702774,0.1676787608330621,0.09173817077297465,0.47890739932937626,,,702774,0.17144090456060002,0.08544532770766605,0.1133826185415775
702775,0.16814504517775397,0.0915236707101173,0.47891503902420807,,,702775,0.17149753905171775,0.08540785516705116,0.1133832667330599
702776,0.16862037415337988,0.09131682565976185,0.47892354050930364,,,702776,0.17156708079147948,0.08538462605545186,0.1133852458026023
702777,0.16910662051396474,0.09111552204245635,0.4789332912082783,,,702777,0.17163086228646657,0.08535674654590045,0.1133890617674434
702778,0.16959595815081924,0.0909213501015808,0.4789395763867308,,,702778,0.17168831608417334,0.08533137050706426,0.1133899995361328
702779,0.17008667897778465,0.09073306100606224,0.4789417603886164,,,702779,0.17175537442902175,0.08529938476376635,0.1133876473120099
702780,0.17058817409250077,0.0905487432236162,0.47894981767758626,,,702780,0.17182163420944674,0.08528087809400614,0.1133915498975295
702781,0.17108477299739067,0.0903767799578811,0.4789525621747348,,,702781,0.17188371670733382,0.08525362448295845,0.11339102982187946
702782,0.17158812544385676,0.090203042427795,0.4789542074475265,,,702782,0.17194454925442698,0.08523635932568921,0.11338981641597365
702783,0.17208910382852965,0.09003689359613705,0.47895696392126996,,,702783,0.17200961002339066,0.0852086544689629,0.1133905530505428
702784,0.172591696550787,0.08987040529725505,0.4789615599130377,,,702784,0.172083643994946,0.08518410637160859,0.11339364631254184
702785,0.17310074889641047,0.0897031902627442,0.4789613141649593,,,702785,0.1721448516348918,0.08516486165607276,0.1133924303644875
702786,0.1736095785068582,0.08953386316867659,0.478959882342874,,,702786,0.17220460749950284,0.08514112647731775,0.1133906701681226
702787,0.17412594889526956,0.08936194487280645,0.4789631708481012,,,702787,0.17227524081941636,0.08512108206308269,0.11339415009895905
702788,0.1746508796066883,0.08919299913802875,0.4789665680726492,,,702788,0.17233656362145244,0.08510646073430805,0.1133984306281571
702789,0.17518125825309,0.08901728078896495,0.47896050016881714,,,702789,0.1724080141965584,0.08507639309894455,0.11339395699116636
702790,0.1757213637384186,0.0888476774555921,0.4789556327312221,,,702790,0.1724651472031371,0.0850555357024355,0.1133914992552492
702791,0.1762747513620348,0.08868008068855494,0.47895011132248566,,,702791,0.17253967969261147,0.08503162299795,0.11338909457515295
702792,0.17682698258442336,0.0885209223214271,0.478944946388137,,,702792,0.17260590234390516,0.0850115231127333,0.11338785704635346
702793,0.17738327030787265,0.08836377392331131,0.4789375831146103,,,702793,0.17267758337078004,0.084990663956424,0.1133851277694972
702794,0.17793809834283175,0.08821735007795249,0.4789369009546476,,,702794,0.17276510980722182,0.0849699625190127,0.1133896213410632
702795,0.178497271814085,0.08807518828006315,0.478927444909534,,,702795,0.1728271472907128,0.0849505442348511,0.11338646874308589
702796,0.1790512479447837,0.0879431900027057,0.4789214609607003,,,702796,0.17289894082220486,0.08493266893487411,0.1133873245941917
702797,0.1796010876056405,0.08782121504818345,0.47891077480995303,,,702797,0.1729716292943054,0.0849142270339737,0.11338414284940329
702798,0.1801504110241883,0.08770410331427375,0.4789027196705615,,,702798,0.1730444546419294,0.0848993296058449,0.1133842418919716
702799,0.18068969262930018,0.0875920994325953,0.4788938018729174,,,702799,0.17312221723472282,0.08487972926811224,0.11338389047039066
702800,0.1812303864015099,0.08747389672490045,0.4788815891378244,,,702800,0.17318102771162314,0.0848658248687216,0.1133812132760284
702801,0.1817605906900439,0.08735893940329745,0.47887186151418615,,,702801,0.1732497027994278,0.0848523933699431,0.1133812310138466
702802,0.18229199913140134,0.0872379289973487,0.47886380665601047,,,702802,0.1733183238610166,0.0848306038354465,0.1133835788639366
702803,0.182810080764698,0.0871202304287458,0.47885398697264214,,,702803,0.17338102609158462,0.08481702165966624,0.11338455305705865
702804,0.18331805887457253,0.08700118144089564,0.47884430903368574,,,702804,0.17344353031526372,0.08480332997423384,0.11338599115885414
702805,0.18381558609605086,0.0868770014138018,0.478834330457763,,,702805,0.17351793229094098,0.08478821778457946,0.11338705070553935
702806,0.18429391016343238,0.08675654091458986,0.4788173576914784,,,702806,0.17357475129870908,0.0847690160545451,0.11338163372979025
702807,0.1847594789859581,0.08663631167551256,0.4788050233740214,,,702807,0.17363483302524568,0.08475585944204185,0.1133808518679673
702808,0.1852080281631151,0.08651415078709894,0.4787898023636072,,,702808,0.17369684278579833,0.08473564326264865,0.11337709255258535
702809,0.18563108165938555,0.0864070873686323,0.4787695971679732,,,702809,0.17374321138497156,0.08472386914852445,0.11336849661407244
702810,0.18604398681995266,0.0863025057991924,0.478763728996941,,,702810,0.1738025244646941,0.08471794171259445,0.1133738622445913
702811,0.1864316560219655,0.0862034509798163,0.4787482397206143,,,702811,0.17386002589181435,0.08469803696329445,0.1133692490633118
702812,0.18680309676098225,0.086114829114983,0.47873362145614634,,,702812,0.1739126549720543,0.08469525814022616,0.11336539582893959
702813,0.1871528785272833,0.0860315670288757,0.47872575268173484,,,702813,0.17394357845080416,0.08468756998834051,0.1133686300842902
702814,0.187493988840226,0.08594702651359624,0.47871646840289994,,,702814,0.17398868811967635,0.0846688474217821,0.11336993142752866
702815,0.1878219764922138,0.0858574738170903,0.47870350785822036,,,702815,0.17402781134128886,0.08466115819018505,0.11336748608381414
702816,0.1881349160595,0.08576996013205204,0.4786926914110696,,,702816,0.17407144305845962,0.08465100252073304,0.11336669229486565
702817,0.18842713292267224,0.0856820199663147,0.47867815239698525,,,702817,0.1741030613020259,0.08463421641229074,0.11336206727458295
702818,0.18871777701283937,0.0855855695152627,0.4786705343541314,,,702818,0.17414549943361318,0.08462833927239016,0.11336401729529791
702819,0.18899668052940233,0.0854903013225195,0.4786600363677562,,,702819,0.17417975789940204,0.08461304341222525,0.1133631595790612
702820,0.18926447246763112,0.0853995963327747,0.47865272465370445,,,702820,0.1742109843446733,0.08460122288231786,0.1133653390729741
702821,0.1895204759855255,0.0853084466442009,0.47864200351737485,,,702821,0.17425291150045785,0.0845849135883758,0.11336334694974701
702822,0.189763787373178,0.08522174459274096,0.4786319990256851,,,702822,0.1742824156303076,0.0845757495966793,0.1133621962926043
702823,0.18999937748489795,0.0851385555115399,0.4786192300112691,,,702823,0.17431742592002644,0.08456888783462355,0.11335785668650245
702824,0.19023084498438464,0.0850564698626226,0.47861107276895565,,,702824,0.1743462212226859,0.08455882426953559,0.11335835197682725
702825,0.19045632150999514,0.08497783458932864,0.4786025430717608,,,702825,0.17437030815375243,0.0845481276279043,0.11335854997198419
702826,0.19067329097615154,0.08490448075714199,0.4785971845653493,,,702826,0.17439886514709316,0.0845318659914889,0.1133614754795447
702827,0.19087651799613636,0.08482996835513085,0.47858579825867054,,,702827,0.17443139633732935,0.0845242317951985,0.1133576730163465
702828,0.19107923840978597,0.0847555934038699,0.4785787361053443,,,702828,0.17445252147551826,0.0845164612620318,0.11335878310572231
702829,0.19128074890384028,0.0846784513771089,0.4785706935782328,,,702829,0.174482491663946,0.08451122383198165,0.11335855035474945
702830,0.1914688885288594,0.08460483953843505,0.4785603973117226,,,702830,0.1745138420714772,0.08450046273243375,0.11335547610398475
702831,0.191654983283744,0.08453585793676935,0.478548778243232,,,702831,0.1745316549467083,0.0844960639945046,0.11335169581739465
702832,0.1918367213122582,0.08447241575816655,0.4785427512184239,,,702832,0.17455629294743755,0.08448703675429994,0.11335306687480175
702833,0.1920121042713952,0.0844118935468188,0.4785334154116403,,,702833,0.17458089435609409,0.08447914647371625,0.11335090300562134
702834,0.1921869377366978,0.08435548220822454,0.4785251088722702,,,702834,0.17460414464883975,0.0844695983005389,0.1133498751364832
702835,0.19235659212717127,0.08430303873832469,0.47851906353612644,,,702835,0.17462772442545244,0.08446517363103814,0.1133509105825437
702836,0.1925262354934188,0.08425145851651085,0.47851401358360857,,,702836,0.17465363866859634,0.08445716054389585,0.11335288895688606
702837,0.19268623787251693,0.08420039587145145,0.4785031297503072,,,702837,0.17467444889455613,0.0844466598245632,0.11334886949702955
702838,0.19284408498949845,0.08414830574107106,0.47849562249858313,,,702838,0.17469775549447775,0.08443432847932064,0.11334805248600466
702839,0.1929954556552313,0.0840938807222779,0.47848377016528576,,,702839,0.17471752738473506,0.08442750221227191,0.11334280423010126
702840,0.19314125339054125,0.0840383833477312,0.47847875871564016,,,702840,0.1747147428025739,0.08442459176006165,0.113345312534859
702841,0.19327957183164268,0.08398148320337295,0.4784724336388574,,,702841,0.17474478451325698,0.08442386113390275,0.11334453148665499
702842,0.19341217499682567,0.08391703901920325,0.47846088051828106,,,702842,0.17475250679354637,0.0844104903790259,0.11333940448935935
702843,0.19354346895072475,0.0838462815579916,0.47845292768746484,,,702843,0.1747708377860977,0.08439422680401196,0.11333731990767715
702844,0.19367375560695999,0.08377163272491156,0.47845079923917977,,,702844,0.1747960864638585,0.08439329836295295,0.1133407252768229
702845,0.19379916423919397,0.08369383058315545,0.4784456063115964,,,702845,0.17480852848607925,0.0843808871784672,0.11334150790106501
702846,0.19392531477009045,0.08360517521012399,0.47844126240391366,,,702846,0.1748336839715407,0.0843778656952864,0.1133426023788382
702847,0.19404941137764886,0.0835093234225342,0.4784333591827657,,,702847,0.17481708544006214,0.0843699056068846,0.1133422801263553
702848,0.194173301091416,0.0834077746356856,0.47843267185174854,,,702848,0.17483474911067803,0.08435721106463004,0.11334742434509375
702849,0.19429481461693085,0.0833071340727096,0.47842354074464316,,,702849,0.17484822781784665,0.08433717004857541,0.11334425037473769
702850,0.19441969451789853,0.0831995552430236,0.47841928102666675,,,702850,0.174866166507719,0.08432729064089264,0.11334599150185484
702851,0.19455020684610055,0.08309213292487451,0.47841321048632424,,,702851,0.17487915149301664,0.08431474478568945,0.11334654017695009
702852,0.19467671798469785,0.08299181755071355,0.4784063735083455,,,702852,0.17490165790646967,0.08430503217781216,0.11334563686924146
702853,0.1948078138504791,0.08289150145202155,0.4784011575226456,,,702853,0.1749206254475764,0.08429572108067934,0.1133468507765101
702854,0.19493922649685297,0.08279566706556055,0.47839451122927523,,,702854,0.17494353974262128,0.0842803541034349,0.11334644975672631
702855,0.19507414787109967,0.08269932710279114,0.4783807652480805,,,702855,0.17494284783315928,0.08425919143477735,0.11334047082664575
702856,0.19521721449791252,0.08260565377269535,0.47837623302761595,,,702856,0.17497267968068886,0.084246719165137,0.1133425569323116
702857,0.1953581535504054,0.0825104071584694,0.4783669678675001,,,702857,0.17499711075207824,0.08423902822825045,0.11334017600887306
702858,0.1955030654619151,0.0824139276477463,0.4783573291463571,,,702858,0.1750186590100313,0.08421667370044364,0.1133377979316245
702859,0.1956526852193448,0.08231546622789539,0.4783506389077724,,,702859,0.17503912683309744,0.0842054436675997,0.11333881969478606
702860,0.195802944844574,0.0822132910117825,0.478337683775259,,,702860,0.1750595539196333,0.08419241514244491,0.11333369233153501
702861,0.19595763052295415,0.08211906770545754,0.4783305775296658,,,702861,0.17508354881256386,0.08417993884224205,0.11333448920522199
702862,0.1961106736960727,0.08202312682885385,0.47831616863517523,,,702862,0.17510072169123408,0.08416997400678865,0.1133283716704157
702863,0.1962654043207689,0.081938728043489,0.47830893835712485,,,702863,0.1751298470173663,0.08415897640155615,0.11332883248292436
702864,0.1964198967164961,0.0818591537102459,0.47830108896560886,,,702864,0.17515011129106156,0.08415715980245225,0.11332926215537995
702865,0.19657824196067758,0.08178597310616284,0.4782936678479157,,,702865,0.17516577402768901,0.0841404932499195,0.1133305444763194
702866,0.19673156241242146,0.081718757433185,0.4782897143446734,,,702866,0.1751884419435603,0.0841378861971391,0.11333470239699894
702867,0.19688092041893018,0.08165644290886534,0.4782770322297226,,,702867,0.1752079481535751,0.08412731999788284,0.11333005524698919
702868,0.1970336716209513,0.08160136710579845,0.47827003913263466,,,702868,0.17522938903739566,0.08411504828171004,0.11333117625667025
702869,0.1971837472577168,0.0815507643663482,0.47825652369530536,,,702869,0.17524427597952585,0.0841107630840676,0.11332608515141204
702870,0.19732975742534914,0.08150399813408765,0.47825053425855524,,,702870,0.17527110617065317,0.08410902063717335,0.11332759892587205
702871,0.197469897908096,0.08146224576420705,0.4782427598354963,,,702871,0.17528530734837416,0.0841008850680258,0.1133277005496929
702872,0.19760617671403385,0.0814280612689651,0.4782346963160309,,,702872,0.17530340739075606,0.08409626799274661,0.11332705577855001
702873,0.1977378916755046,0.08139602076507235,0.4782257991853266,,,702873,0.17532144573098363,0.08409161940217436,0.11332532553745145
702874,0.19786519101972166,0.0813718115279896,0.4782185390440369,,,702874,0.17534359884630302,0.0840871513682721,0.1133246862802974
702875,0.19798674837570865,0.08135305309031189,0.4782098066230218,,,702875,0.17535656772022296,0.08407843868710985,0.11332274715655011
702876,0.19810363486459334,0.0813438035591053,0.47820564659174336,,,702876,0.1753668913710508,0.08408741101889869,0.1133253482983784
702877,0.19821363441397116,0.08133791082733491,0.47819951027009233,,,702877,0.17538274602839105,0.0840789488521928,0.11332507129784655
702878,0.19831120190989135,0.08133956139700894,0.4781948322807992,,,702878,0.1753988904304834,0.08408980591294571,0.1133255665060388
702879,0.19840087766035056,0.08134754814318515,0.47818779169739134,,,702879,0.17541086240345133,0.0840870992699895,0.1133233332647415
702880,0.1984789975992291,0.08136054276898756,0.4781843157010966,,,702880,0.1754156728791426,0.084092695611948,0.1133244283978495
702881,0.1985422543699646,0.08137795216077211,0.47817831903085745,,,702881,0.17542372434052966,0.08408849367108395,0.11332176433677145
702882,0.19859524239899914,0.08139464923081134,0.47817380108530416,,,702882,0.17542738872158448,0.08409694040295665,0.1133203138501641
702883,0.19863685514569873,0.08142103477714764,0.47817452012458606,,,702883,0.1754277037292063,0.08409439319921655,0.1133234444587563
702884,0.1986656413918283,0.0814434947165973,0.4781726680806504,,,702884,0.1754414254829794,0.08410162229881735,0.1133224397369979
702885,0.19867935203424453,0.08147292622521299,0.4781728758517574,,,702885,0.17543981994048224,0.0841089066833567,0.11332346208721975
702886,0.1986843825589957,0.0815037998369149,0.47817009209978834,,,702886,0.1754364970043602,0.08411379380350634,0.11332102369208011
702887,0.19867327889289732,0.0815418660807509,0.4781715456703157,,,702887,0.1754450058876546,0.0841222653601904,0.1133210175879347
702888,0.19865445600460518,0.08158027621552665,0.47816926636878054,,,702888,0.17544005850352729,0.08412481355706945,0.1133176032951156
702889,0.1986204512713324,0.08161993474586154,0.4781697186229147,,,702889,0.17543423664620725,0.0841257488843713,0.1133159954459399
702890,0.19857018661995712,0.08166171063053936,0.4781737577566785,,,702890,0.1754283374018302,0.08412981498980525,0.11331696085565195
702891,0.19850897844100346,0.08170911483699306,0.47818036327982094,,,702891,0.17542001416288566,0.0841397407283543,0.1133199642837397
702892,0.19843666749219702,0.0817537560619981,0.47818482135568124,,,702892,0.17541368972429822,0.08414265861837035,0.113319977052322
702893,0.1983524355216986,0.0818036426049674,0.4781884145325614,,,702893,0.1754034655063742,0.08414445737937229,0.11331859619913551
702894,0.19825621775068059,0.0818540405572273,0.4781966924915637,,,702894,0.1753969843110108,0.08415477770064485,0.11332098622381676
702895,0.19814841501945185,0.0819044360983471,0.4782027158641212,,,702895,0.17537968792059816,0.0841646011487725,0.11332109713075406
702896,0.19803649560077768,0.08195358071744334,0.4782131316647482,,,702896,0.1753555299290051,0.0841711928046793,0.11332578608797156
702897,0.19791434397474725,0.0819992933966906,0.47821841237284113,,,702897,0.17533761226921463,0.084170585231406,0.11332432411365255
702898,0.19779294768039185,0.0820404973603566,0.4782306308761759,,,702898,0.17532830253845083,0.08418503494399525,0.11332946665983815
702899,0.19766905239891844,0.08207461875650886,0.47823656006114756,,,702899,0.1753099693752832,0.08418655455157435,0.11332872224072024
702900,0.19754453703752164,0.08210410625449015,0.4782416763943213,,,702900,0.17529494005034468,0.0841867270168887,0.11332697801412756
702901,0.19741995789857492,0.082126017388625,0.4782447892632594,,,702901,0.1752787576335087,0.08418644650676516,0.11332337189794364
702902,0.19730106606664966,0.0821438007014846,0.4782540831764416,,,702902,0.1752666025297262,0.0841910614491587,0.11332613123344415
702903,0.1971829740259422,0.0821597079360638,0.4782582156315289,,,702903,0.17524675389421018,0.08418546628998241,0.11332422499943745
702904,0.19706988223260535,0.08217396328297134,0.4782647701354992,,,702904,0.17523743969574446,0.08419061387842836,0.1133245057873596
702905,0.19696332560658855,0.0821874564174812,0.47827074069288195,,,702905,0.17522674797099536,0.08419213499008499,0.11332468793199525
702906,0.1968625967776244,0.08219808974920685,0.47827910036683763,,,702906,0.17521566924004514,0.08419871799651735,0.11332769677447099
702907,0.1967727197159205,0.08220719277560759,0.47828723212090835,,,702907,0.17520474109509265,0.08420066484852229,0.11333111511977406
702908,0.19668818545188216,0.0822113546667608,0.4782909259829705,,,702908,0.17518965827048694,0.084198235728901,0.11333067526802584
702909,0.1966128262207008,0.0822103899764067,0.4782963333093372,,,702909,0.17517994411694449,0.0841934267267701,0.11333220068914004
702910,0.19654519004578397,0.08220175678631204,0.47830154961369553,,,702910,0.17516819991117474,0.08419390908847496,0.1133341886192781
702911,0.1964922541670762,0.08218815011819605,0.4783046566490222,,,702911,0.17515952965471948,0.08418739306318054,0.11333474437985105
702912,0.19644716495029724,0.08216241039311045,0.47831056593623095,,,702912,0.17516280903863385,0.08418489042579605,0.11333795773503655
702913,0.19641267100701454,0.0821294700096233,0.47830913401077113,,,702913,0.17515326565900954,0.0841831356386334,0.11333524575166154
702914,0.19639585228957368,0.08208719450240146,0.4783061542991238,,,702914,0.17514733034468338,0.0841785335623706,0.11333184618232856
702915,0.19639511418921554,0.08203510840320945,0.47830987906230704,,,702915,0.17515263645589402,0.08417933108069145,0.1133355259659582
702916,0.1964097354873835,0.0819784859637239,0.47830935983073924,,,702916,0.17515503084468687,0.0841680624645175,0.11333598785061996
