field.frameNumber,field.x_m,field.y_m,field.z_m,,,field.frameNumber,field.x_m,field.y_m,field.z_m
685930,0.1647791959616458,0.3082997590826654,0.47997103342074043,,,685930,0.1700282624350721,0.3177256638240792,0.11453195697953256
685931,0.16485642217529564,0.3083513319601958,0.4799728370847066,,,685931,0.17004429493534146,0.317728999742527,0.11453164579337265
685932,0.16492306190698958,0.30841769285026577,0.47997539265592576,,,685932,0.17005406710741655,0.3177361217016677,0.11453188315190665
685933,0.16497704625360848,0.308490345701685,0.4799749017132885,,,685933,0.1700675796593363,0.3177453055192466,0.11452921333037695
685934,0.1650147510992166,0.3085767573074238,0.47997615811407485,,,685934,0.1700730563164623,0.317756993407985,0.1145281374836346
685935,0.16504108021026434,0.30866863920365406,0.47997816027734685,,,685935,0.1700831764250843,0.31776306482341743,0.1145277701316437
685936,0.16504750483515934,0.3087645694541499,0.4799766413021779,,,685936,0.1700862840205458,0.3177792114866051,0.11452422866465385
685937,0.1650473450951382,0.3088678442353103,0.4799793990106242,,,685937,0.1700855682453976,0.31779133976090335,0.11452474176251559
685938,0.1650258392387419,0.3089712379889305,0.4799785419042843,,,685938,0.17008213723918694,0.3178018416277329,0.11452187790820301
685939,0.16499827701319594,0.3090777654689352,0.47999561853883793,,,685939,0.17004123431649146,0.3178162924820022,0.1145365569511977
685940,0.16495031504584834,0.3091871488101381,0.47999646125073403,,,685940,0.17003579660737306,0.3178263978654316,0.11453562857192615
685941,0.16489608840644385,0.30929342022718126,0.47999854041681966,,,685941,0.170023377599813,0.3178375190347032,0.11453605499549155
685942,0.16482788201716914,0.3093969209904256,0.4800029734437937,,,685942,0.170019443562065,0.3178458484786886,0.11453918278559015
685943,0.16475208507377842,0.3094939706071253,0.4800079580789448,,,685943,0.1700100414532385,0.3178585039197718,0.1145431753071804
685944,0.1646736941901144,0.3095856021038266,0.48000917409991606,,,685944,0.16999696844665696,0.317871446485688,0.1145435443844682
685945,0.16458654966098824,0.3096698791803648,0.4800131713601038,,,685945,0.1699860552656408,0.3178844016137251,0.1145470499074351
685946,0.16449545567536666,0.3097459020607702,0.48001265509932545,,,685946,0.16997364845812685,0.31789881639320294,0.1145463251030281
685947,0.1644019432785461,0.30981960710791784,0.48001481362463216,,,685947,0.1699600993292443,0.3179098138733369,0.1145482974770534
685948,0.16430573729740616,0.3098855616500596,0.48001641013939567,,,685948,0.16995173523362916,0.3179183787664094,0.11454997457284585
685949,0.16419626289991074,0.30994883818644314,0.4800146465002546,,,685949,0.1699357313746935,0.31792484042988767,0.11454842253546865
685950,0.1640851625423937,0.310009422474752,0.4800139853733677,,,685950,0.16992740104339665,0.3179336232481828,0.1145482629579277
685951,0.1639667487087491,0.3100639108156885,0.48000825375895406,,,685951,0.1699150363774767,0.31793936293000646,0.11454318826425491
685952,0.16385118901754347,0.3101164392305301,0.48000842602490196,,,685952,0.16989803100343376,0.31794059214982506,0.1145438760308802
685953,0.1637245773900731,0.3101635137077381,0.4800083275239587,,,685953,0.16987580882629116,0.31795224507910014,0.11454476301351074
685954,0.16359559692031575,0.3102031941848472,0.48000579612899696,,,685954,0.16985910401725385,0.3179604051443949,0.1145434682124041
685955,0.16345666854799812,0.3102399327189442,0.48000153254313926,,,685955,0.16983919275822956,0.31796336039784256,0.1145405482796556
685956,0.16331434989869759,0.3102706983338739,0.48000021679645544,,,685956,0.16982257208105078,0.31796890473759515,0.11454091724118305
685957,0.16316390417703405,0.3102988118120175,0.47999818587742576,,,685957,0.16980132367346645,0.3179668135664496,0.1145405749554995
685958,0.16300333674564135,0.3103231120426784,0.479995674492502,,,685958,0.16977898882564335,0.31797734190248794,0.11454031159111619
685959,0.16283644841286926,0.3103452226767258,0.4799911464393425,,,685959,0.16975629551786875,0.3179795717974494,0.11453806956245274
685960,0.16266968940369858,0.31035971082590064,0.47998993409450064,,,685960,0.16973132323560186,0.3179843464731601,0.11453936667380255
685961,0.16249707305794103,0.3103746861910751,0.47998693887530186,,,685961,0.16970900761529464,0.317983757791624,0.11453898225417394
685962,0.16232128352792308,0.31038141026807636,0.4799839222224971,,,685962,0.16968743491962066,0.31799113060641265,0.1145390550547033
685963,0.16214179567511056,0.3103852445248829,0.4799783833178682,,,685963,0.16966814000153008,0.3179916238665909,0.11453671067553
685964,0.16196032453599668,0.31038481444575083,0.47997523975931133,,,685964,0.1696393254214214,0.3179880734532534,0.1145366780733475
685965,0.16177903432548968,0.31038080667848844,0.4799734987350177,,,685965,0.16961463049371925,0.3179891832695239,0.1145383676822178
685966,0.16159814033848305,0.3103716624223273,0.47997165713442685,,,685966,0.1695900144240323,0.3179797826399092,0.11453990505943934
685967,0.1614131795681385,0.31035939517878686,0.4799656233392432,,,685967,0.1695667421374158,0.31798116282900446,0.11453772751770815
685968,0.1612240993455814,0.31034272974646515,0.47995952730139,,,685968,0.1695394157734734,0.31798327560454165,0.11453566855522905
685969,0.16103875810220208,0.31031970538601195,0.4799525397315005,,,685969,0.16952172789514725,0.31797080368642855,0.11453275525407375
685970,0.16085092049797114,0.31028648811280607,0.4799448976280015,,,685970,0.16949356384692724,0.31796733188819837,0.11452947879064529
685971,0.16066643699162386,0.3102510595871192,0.4799407841113816,,,685971,0.16946726982889754,0.31796186163893536,0.1145297719041306
685972,0.16048120498457108,0.31021077307323874,0.4799379696943396,,,685972,0.16944300946528196,0.31796068634946517,0.1145316973427281
685973,0.1602973374859133,0.3101601794482262,0.47992686544249186,,,685973,0.16942409363568367,0.31795754236253215,0.11452568533629015
685974,0.16011750127499255,0.31010852313764226,0.4799208195389126,,,685974,0.16939709984816664,0.31795791067940066,0.1145246028989758
685975,0.1599388680943484,0.3100474729317637,0.4799175514417635,,,685975,0.16937815359564884,0.31794687294951507,0.11452650292274995
685976,0.15976161731425692,0.3099814735992624,0.4799131932186126,,,685976,0.16936046139397315,0.31793644774379176,0.11452750719912344
685977,0.15958663547350135,0.30991081621392513,0.47990661643414345,,,685977,0.16934074549791206,0.3179299140198417,0.11452644404208495
685978,0.1594136324967632,0.30984051222492964,0.47989747049298465,,,685978,0.16931329936984718,0.31792230596968507,0.11452259427007196
685979,0.15923992830461126,0.3097682246594414,0.479891445776766,,,685979,0.16928421545676564,0.3179210084960411,0.1145220937772333
685980,0.15906510122870726,0.3096924926621025,0.4798871098073362,,,685980,0.16926927494838123,0.31790342004531,0.114523490272706
685981,0.15888868071301204,0.3096188546441841,0.4798784014825599,,,685981,0.1692469420074224,0.31789888489528795,0.1145206774760225
685982,0.15871231996326846,0.30954763300341415,0.479873230040901,,,685982,0.1692230183518253,0.3178881840287537,0.11452123620862685
685983,0.15853738902336684,0.30948120198620466,0.47986723195956593,,,685983,0.16920826660548605,0.31788028981349165,0.11452122245003735
685984,0.1583696858934363,0.30941563367251573,0.4798606014952841,,,685984,0.16918797161368895,0.31787135348699025,0.1145202335290086
685985,0.15820002409689277,0.3093553265302462,0.47985592450208886,,,685985,0.1691624974947146,0.31786397488080576,0.11452108350072984
685986,0.1580281397267541,0.3092986776177759,0.479846603310836,,,685986,0.16914601209337699,0.3178512179267481,0.1145174832867918
685987,0.15785855236759083,0.30925180129350927,0.4798408200596516,,,685987,0.1691176949293051,0.3178508538662247,0.11451711842934914
685988,0.15768997465522983,0.30920633645411183,0.47983390392747916,,,685988,0.16909247263630955,0.3178465398151628,0.1145156195576563
685989,0.1575237735554389,0.30916977574316856,0.4798273929011958,,,685989,0.1690738556938392,0.31784223831023384,0.11451450924547425
685990,0.15736275210863254,0.3091418751776356,0.4798212197111282,,,685990,0.1690586703168096,0.3178422639877182,0.11451364012775755
685991,0.1571970769961478,0.3091169462783563,0.47981325424599963,,,685991,0.16903702898339606,0.3178384823472322,0.11451081883832459
685992,0.15703004215502858,0.3091027869780276,0.479803965354312,,,685992,0.169014586077559,0.31783371144896067,0.11450646928557151
685993,0.1568697934618045,0.309093090821537,0.47980016221156596,,,685993,0.16899860499640124,0.3178354046995469,0.114507700137605
685994,0.15670388789770962,0.30909551647997063,0.4797947239425997,,,685994,0.16897543724207892,0.3178346880742759,0.114506953923162
685995,0.1565403799411809,0.3091054678507957,0.479787918069265,,,685995,0.16895203978678108,0.3178366879085933,0.1145046917018077
685996,0.1563761063311784,0.30912613039472375,0.47978246525250223,,,685996,0.16893329400958734,0.3178435383291225,0.11450388279008344
685997,0.15621166764356775,0.3091557095438283,0.47977850134486,,,685997,0.168916144551099,0.3178474634173478,0.11450440063369849
685998,0.15605090578934394,0.3091946962074096,0.4797795259909884,,,685998,0.1688894588726951,0.3178492232461104,0.11450922924390561
685999,0.1558940984887724,0.30924101834887263,0.4797763097014238,,,685999,0.16887673648665405,0.31784890116306297,0.1145100035174113
686000,0.15573732791436096,0.30929294976988847,0.4797706455157726,,,686000,0.16885161985587865,0.31785112477893035,0.1145078744089614
686001,0.15558173756706845,0.3093492640561149,0.4797675659130555,,,686001,0.16883593210099404,0.31786446969245535,0.1145088403917241
686002,0.15542962752102354,0.3094110111158356,0.47976535177511725,,,686002,0.1688184885409125,0.31786331256918665,0.11451007670031235
686003,0.1552796763371212,0.3094757656617342,0.4797632298830994,,,686003,0.16879598548762004,0.31787141010605624,0.11451134212541465
686004,0.1551299311651944,0.30954253155441175,0.4797600948690493,,,686004,0.1687732350734849,0.3178828708703097,0.11451166165160025
686005,0.15498481648614465,0.3096133701042198,0.47975360096235753,,,686005,0.1687598937075579,0.317892703303826,0.11450872576415085
686006,0.15484198425735046,0.30968326711204286,0.47974904188000816,,,686006,0.1687426492105554,0.31790657541353395,0.1145076591155724
686007,0.15470500545869226,0.30975524336822496,0.4797464107498841,,,686007,0.16872648820582076,0.31790798334919457,0.11450806415739626
686008,0.1545660378607095,0.3098273684635521,0.47974207439393757,,,686008,0.16870840222649547,0.3179178976574531,0.1145070051073922
686009,0.1544290305825335,0.30990614799249455,0.4797393325623675,,,686009,0.16869226052705094,0.31792713608460627,0.11450742953250395
686010,0.15429574087652298,0.3099838980557339,0.47973470778708294,,,686010,0.16866923714118787,0.31794522425240784,0.11450582221043609
686011,0.1541655917132999,0.31006512929039304,0.4797308677219896,,,686011,0.16865469213473977,0.31795128147289076,0.11450491910665425
686012,0.15403760922709644,0.31014644185729695,0.4797257406388604,,,686012,0.16863902615866883,0.31795826510624775,0.1145026676952727
686013,0.15391626370339656,0.3102281400208753,0.47972445757003856,,,686013,0.16862020135518374,0.3179710274713562,0.1145040297723849
686014,0.1537982442631535,0.31031355025892504,0.4797218036006562,,,686014,0.16860812436672956,0.3179812612021921,0.1145040704202317
686015,0.15368638187589412,0.3103995755774197,0.47972093547484274,,,686015,0.16859300724203768,0.31798530331454733,0.11450542618733835
686016,0.1535723260620327,0.3104823929896106,0.4797168770296364,,,686016,0.1685735279079824,0.31799300062664604,0.1145036876657537
686017,0.153464077572324,0.310565848127654,0.4797165485316899,,,686017,0.16856474541006722,0.3180017817040083,0.114505930268828
686018,0.15336082511342258,0.3106464157635286,0.4797143204265598,,,686018,0.1685488209983514,0.31801303641205225,0.1145059187564179
686019,0.1532567272622313,0.31072283610799584,0.47971220144880716,,,686019,0.1685367732771837,0.31802447038177717,0.114506334436854
686020,0.1531600651600692,0.31079083622243514,0.47970790857741574,,,686020,0.16852239262151913,0.31802985130126515,0.11450424686946514
686021,0.15307137840586954,0.310853890078133,0.4797054107323306,,,686021,0.16851524982419736,0.31803626808228713,0.11450407002961735
686022,0.15299159077307106,0.31090759976365884,0.47970378786970574,,,686022,0.16850008856335386,0.3180449225128113,0.11450430253394714
686023,0.1529172579776052,0.3109531555627958,0.47970106607711244,,,686023,0.1684933719470931,0.31805106904610425,0.11450369031020935
686024,0.15285035153630444,0.3109915049897988,0.47970011043511873,,,686024,0.1684846632247369,0.31805515111655147,0.1145045571069537
686025,0.1527941581336898,0.3110238097517175,0.47969782524214466,,,686025,0.168477542549325,0.3180584940444024,0.11450381702265965
686026,0.1527424824232788,0.3110454415535766,0.4796967947972708,,,686026,0.16847420267775393,0.31805989787666233,0.114504476491469
686027,0.1526973818657369,0.3110620563162598,0.479695634341858,,,686027,0.1684649752578798,0.31806418384522184,0.114504626541929
686028,0.15266230195097752,0.31106935387009726,0.4796952377494167,,,686028,0.1684623328986263,0.3180634600807951,0.11450547821390289
686029,0.15263349297173665,0.3110664047118929,0.4796926049305402,,,686029,0.16846291091875054,0.318058955061517,0.1145040882212844
686030,0.15261391146860298,0.31105736375088544,0.47969473645504684,,,686030,0.16845737174459036,0.3180599058950549,0.11450702015116851
686031,0.15260461146620855,0.3110385412044656,0.4796948605253902,,,686031,0.1684550597215269,0.31805556025291315,0.11450772534259265
686032,0.1526038202799576,0.31100995187515323,0.4796940414734139,,,686032,0.16845710775751727,0.3180504811060503,0.11450748203626505
686033,0.15261059849839564,0.31097009074234105,0.4796901408046135,,,686033,0.16845233174419416,0.31804748794444937,0.11450379261255389
686034,0.1526328711204618,0.3109232286543945,0.4796930637455734,,,686034,0.16845873323639454,0.318046641323272,0.11450692210069124
686035,0.1526645876122393,0.3108660435408776,0.4796934753250421,,,686035,0.16846261377213864,0.31803860204589707,0.11450709038827744
686036,0.15270542305967288,0.31080285619111125,0.47969360958085516,,,686036,0.16846858998497855,0.3180299514363748,0.1145067935099017
686037,0.15275708372842833,0.31073164272177,0.47969102110178075,,,686037,0.16847126606957924,0.3180209530117306,0.11450333045752414
686038,0.15281952984189406,0.310653331904187,0.4796915766425316,,,686038,0.16848127429558446,0.3180179581912739,0.11450314444682465
686039,0.1528939370314552,0.31056672324638795,0.4796898751277091,,,686039,0.1684905260548665,0.31800277795150056,0.11450010189946425
686040,0.1529736226750129,0.3104761272392489,0.47969012517507026,,,686040,0.16849954354225255,0.3179980361768891,0.11449909894852439
686041,0.15306424447382938,0.310380656489499,0.4796914252263498,,,686041,0.16850698633733105,0.3179831004484064,0.11449853983723315
686042,0.1531635679660154,0.3102790508714862,0.4796901037555952,,,686042,0.16852222542401718,0.31797260965781127,0.11449558057167786
686043,0.15327226931766263,0.3101750816936351,0.47969297954035817,,,686043,0.1685341058645457,0.31795893472368986,0.11449631068032814
686044,0.15338493124614383,0.3100691305397832,0.47969426673237264,,,686044,0.16854659637012245,0.3179489608337872,0.11449548366423906
686045,0.1535020726676647,0.30996358970186577,0.47969856290659596,,,686045,0.16856732643271166,0.31793574772298117,0.11449779374705435
686046,0.15362667986661227,0.30985296661210887,0.47970294209601255,,,686046,0.1685813951168474,0.31792252079404937,0.1144997688399075
686047,0.15375433275037442,0.3097444519284983,0.47970612799905155,,,686047,0.16859905071111864,0.317909632408027,0.11450059251849205
686048,0.15388320829718483,0.30963776989358,0.4797085709262233,,,686048,0.16861008076268735,0.31789700094191586,0.11450037920660346
686049,0.15401347968359225,0.3095335635261697,0.47971122221688994,,,686049,0.1686290687981002,0.317877735249273,0.11450049082701025
686050,0.15414853996554814,0.3094352932259885,0.4797127023729464,,,686050,0.1686483481535369,0.31786704007007194,0.1144993672153862
686051,0.1542857478066072,0.3093387714655148,0.4797152753180225,,,686051,0.16867049601017786,0.31785756317183955,0.1144994101420642
686052,0.1544211933049484,0.30924231313241723,0.47972076515080175,,,686052,0.16868874066254586,0.3178434694906488,0.11450223307590895
686053,0.15455964376275774,0.3091504587525954,0.47972367462925114,,,686053,0.1687016967799242,0.31783711516216173,0.11450228518700964
686054,0.15469788198932938,0.30906497778772657,0.47972464728940933,,,686054,0.16871452380596613,0.3178249272573867,0.11450017383956951
686055,0.1548365461088534,0.3089831369016542,0.47972688084828485,,,686055,0.1687287970233075,0.3178130273881812,0.11449933894082501
686056,0.15496857750979376,0.3089050618876287,0.47972657816543823,,,686056,0.1687543836763869,0.317807194147941,0.11449675660263564
686057,0.15509736496842963,0.30883490880256537,0.47973095520098075,,,686057,0.16876863303512085,0.31779744841324997,0.11449830567137584
686058,0.1552183095387129,0.3087679436688304,0.4797349447840207,,,686058,0.1687766537483825,0.3177967939993493,0.1144997190277407
686059,0.1553361046570133,0.3087032292863176,0.47973605653752016,,,686059,0.16879652182204907,0.3177859973897465,0.1144985455086526
686060,0.15544823679208014,0.3086426692159816,0.4797365091435356,,,686060,0.1688126518733364,0.31777410814037443,0.11449668628471095
686061,0.1555529162580487,0.3085837813785814,0.47973631336401956,,,686061,0.16882371838278232,0.31776701980245503,0.11449437585922534
686062,0.15565567807232206,0.30853244392968115,0.4797397532856157,,,686062,0.16884009063870545,0.3177642087875966,0.11449591041878915
686063,0.15574991901785315,0.3084810042829045,0.479741321066838,,,686063,0.16885567689729886,0.3177519936676345,0.11449564096168849
686064,0.1558360617349806,0.30843359194431097,0.4797428638241942,,,686064,0.16886458554313485,0.31774401932264723,0.11449542375287385
686065,0.15591357962041125,0.3083869082925032,0.47974697438647645,,,686065,0.16887432873985803,0.31774037748709416,0.11449822275886551
686066,0.1559828420372617,0.30834502653994494,0.47974934505541594,,,686066,0.16888254889639065,0.3177376562317772,0.11449943740359986
686067,0.15604167707679384,0.308306722599757,0.4797528811276611,,,686067,0.16889472676702866,0.31772938608609524,0.11450210221579735
686068,0.15609214277943995,0.3082722829102657,0.4797523060502425,,,686068,0.16890238898824433,0.31772675324551675,0.11450084533859911
686069,0.1561324263119668,0.3082453873781751,0.4797535000253757,,,686069,0.16889886245107127,0.31772768805346163,0.11450122686140304
686070,0.15616945786983955,0.30822619653096267,0.47975612661996075,,,686070,0.1689030461605808,0.3177274422847629,0.1145031991469461
686071,0.15619298712654534,0.30821219223724317,0.4797576666081128,,,686071,0.1689131226781389,0.31772197041982964,0.11450449244023955
686072,0.1562097422526332,0.30820752488861103,0.4797563936499212,,,686072,0.16891135998418932,0.31771915607471396,0.11450262330877811
686073,0.15621728614801345,0.3082124734790005,0.47975863205140445,,,686073,0.1689108023465826,0.31772280678188214,0.11450454627518161
686074,0.15621579165024946,0.308226298252433,0.4797591323553634,,,686074,0.16891181243242326,0.3177228846609967,0.1145047759513324
686075,0.15620633728279437,0.30825235667212136,0.47976089462788596,,,686075,0.16890744360308318,0.31773124105800776,0.11450625520727664
686076,0.15618780351005204,0.3082880733537834,0.47975953827141016,,,686076,0.16891307826855745,0.3177330762099102,0.11450486236347895
686077,0.15615491282716354,0.30833785771394207,0.4797581105834587,,,686077,0.1689016882853315,0.3177459755958272,0.11450323244686335
686078,0.15611720751398178,0.30839768174108684,0.47975825637953223,,,686078,0.16890080489657283,0.317751419404951,0.1145032684616189
