field.frameNumber,field.x_m,field.y_m,field.z_m,,,field.frameNumber,field.x_m,field.y_m,field.z_m
667230,0.59030583589795,0.1117318602684405,0.478333073084529,,,667230,0.6006398484465655,0.08631704663818095,0.11376563844174059
667231,0.590268939308946,0.111767926420618,0.47833161753191566,,,667231,0.6006387632665401,0.0863254670565982,0.11376712806285294
667232,0.5902313151489452,0.1118034637619402,0.47832812761493315,,,667232,0.6006306363269834,0.0863278587358418,0.113766793081456
667233,0.5901926220681235,0.11184130378636631,0.47832117547901487,,,667233,0.6006216122117749,0.08633723787873135,0.11376267845007135
667234,0.5901578721179495,0.1118793282010349,0.47831785179757863,,,667234,0.600615035251919,0.08633922437735406,0.11376268477192156
667235,0.5901248830943131,0.1119169681477698,0.47831574003615007,,,667235,0.6006174237744424,0.08634110978605569,0.11376409619350185
667236,0.5900951839969496,0.11195341075243735,0.47831427723133435,,,667236,0.6006218879420244,0.0863463085189963,0.11376581160776544
667237,0.5900639842030628,0.1119914310732397,0.4783107482980576,,,667237,0.6006117853819725,0.0863524682376818,0.1137651318873721
667238,0.5900336686824978,0.11202656964422705,0.4783079087861099,,,667238,0.6006113014334555,0.0863567105073896,0.11376533104446884
667239,0.5900029401018744,0.1120613146639599,0.4783033603748792,,,667239,0.6006047615973956,0.0863622356070246,0.11376354405045885
667240,0.58996910127912,0.11209652780638164,0.47830186179609857,,,667240,0.6006040451840415,0.08636721829012756,0.11376514270020896
667241,0.5899349997804124,0.11213152528316715,0.47829826238869055,,,667241,0.6005945861409687,0.08636851187752939,0.11376464346154365
667242,0.5898979385488268,0.1121658187394351,0.47829672890399516,,,667242,0.6005844181514159,0.0863761368991694,0.1137657831208958
667243,0.589856715975424,0.11219918926882261,0.47829237064077573,,,667243,0.6005789274762032,0.08638290080235635,0.11376435745168155
667244,0.5898144574410833,0.11223074214244931,0.4782886112895598,,,667244,0.6005818288155054,0.08638141099185305,0.1137642708649571
667245,0.5897675111775589,0.1122600618919219,0.4782865327035672,,,667245,0.6005731530133944,0.0863858969378071,0.11376508661063495
667246,0.5897161255134369,0.11228789514762225,0.478283416443283,,,667246,0.6005681195080721,0.0863919177468209,0.1137648962690164
667247,0.5896606042039358,0.1123155806376345,0.47828105510907915,,,667247,0.6005682381986976,0.08639609839901735,0.11376586622066265
667248,0.5896017233558526,0.11234301941170804,0.47827614797653917,,,667248,0.6005580197973621,0.08640215168382985,0.11376393978722471
667249,0.5895385202585044,0.11236916738959185,0.4782719972858034,,,667249,0.6005427456942753,0.08640325078876446,0.11376301637192075
667250,0.5894690479461738,0.11239073042952055,0.4782641998109932,,,667250,0.6005372499451407,0.08640304290390174,0.11375870743698174
667251,0.5893972371601028,0.11241437655105366,0.47825768166953453,,,667251,0.6005258869152665,0.086405719252624,0.1137555254764617
667252,0.5893166412164749,0.11243556798649179,0.4782542986388244,,,667252,0.6005136524288015,0.0864103901664448,0.11375541519940205
667253,0.5892281576775704,0.1124662518136761,0.4782519699182649,,,667253,0.6005043320349368,0.08641125657650056,0.11375765708980305
667254,0.5891381333283449,0.11249075947707295,0.47824920450850017,,,667254,0.6004988248991145,0.08641496366633865,0.11375900364006761
667255,0.5890418829029391,0.11251487021156645,0.47824136878058754,,,667255,0.6004895353828662,0.08641517972194365,0.11375559899213025
667256,0.5889416142344868,0.11253654063789395,0.4782371347630246,,,667256,0.6004710216608129,0.0864172859078981,0.11375534335776524
667257,0.5888313718460179,0.1125547607567398,0.4782328078128518,,,667257,0.6004570007970573,0.08642294675937745,0.11375497307123185
667258,0.5887171170030668,0.1125730813964536,0.4782307062627962,,,667258,0.6004451788323099,0.08642391916824566,0.11375739743246245
667259,0.588596063905419,0.1125909329791349,0.4782244649790088,,,667259,0.6004258463793302,0.086426384194548,0.11375554778200204
667260,0.5884742532593533,0.11260670923447236,0.4782194391549117,,,667260,0.6004128489076455,0.08643326391398004,0.11375470881294661
667261,0.5883541437281339,0.1126198420699574,0.47821606249077453,,,667261,0.6003939956741784,0.08642958224694636,0.11375587094064095
667262,0.5882310766882186,0.11263133647843525,0.4782131649369066,,,667262,0.6003841117229914,0.08643684082186735,0.11375703437249804
667263,0.5881030539751322,0.1126419792761737,0.4782085097465677,,,667263,0.6003675671517146,0.08643607883446319,0.11375693344620344
667264,0.5879694761866763,0.1126509391153991,0.4782043464102592,,,667264,0.60034482638277,0.0864342930406498,0.11375728969919871
667265,0.5878342658878799,0.11265620151464455,0.47820062747444014,,,667265,0.6003365654283999,0.0864396669824139,0.1137578956323041
667266,0.5877010804646882,0.11265970961986299,0.47819426947882976,,,667266,0.6003183369993224,0.08643976616273025,0.11375574466033084
667267,0.5875678046858631,0.11266037481907425,0.47818883068659307,,,667267,0.6002963433220923,0.08644346269480474,0.11375395750333969
667268,0.5874369663689196,0.11265862024188285,0.4781833963612938,,,667268,0.6002794147990438,0.08644029857129705,0.1137526209095808
667269,0.5873132065334814,0.1126533533488885,0.47818050174587856,,,667269,0.6002712226561586,0.08644421523776805,0.11375315663182665
667270,0.5871903423695348,0.11264953419428796,0.47817690425744225,,,667270,0.6002550364122443,0.08643623443701975,0.11375366727241455
667271,0.5870630475673956,0.11264884437186005,0.47817078920112666,,,667271,0.6002324482156187,0.0864382637339414,0.1137511254637958
667272,0.5869398062602771,0.1126462200195265,0.47816419261148646,,,667272,0.6002217479618808,0.08644155437172871,0.11374818789687195
667273,0.5868215036645703,0.11264572916604715,0.4781593136948385,,,667273,0.6002006838158496,0.08643903096830395,0.11374701220476591
667274,0.5867034606810488,0.1126426224428387,0.4781567205814451,,,667274,0.6001894252972408,0.08643854901263165,0.11374816653355399
667275,0.5865946501687235,0.1126384549661429,0.4781534255391236,,,667275,0.600168903999786,0.086440117864032,0.1137477371432731
667276,0.5864870529544284,0.11263312971277059,0.4781515520837267,,,667276,0.6001678377746678,0.08643632479590675,0.1137497374503611
667277,0.5863800503355403,0.11263016882310424,0.4781475234411986,,,667277,0.6001585979981169,0.08643330922188566,0.1137493961949355
667278,0.586276855426401,0.1126259298433856,0.47814059801497766,,,667278,0.6001370324006969,0.0864334027359139,0.1137452550326542
667279,0.5861812164271036,0.11262086480031475,0.4781370204810871,,,667279,0.6001166580541331,0.0864348273376134,0.1137440816390985
667280,0.5860907341572942,0.11261774095517575,0.4781354199038723,,,667280,0.6001089326868454,0.08643504304148411,0.11374541536315211
667281,0.5860051494008367,0.11261383161781739,0.47812772555060423,,,667281,0.6000951120179192,0.08643040637083595,0.1137405411367934
667282,0.5859237415477612,0.1126119728036734,0.4781261306794572,,,667282,0.6000892767043747,0.08643698218040344,0.11374127033419235
667283,0.5858445286318246,0.11260939403374084,0.47812047428793153,,,667283,0.6000762977787089,0.08643300360043646,0.11373829538771049
667284,0.5857706007547965,0.11260754836800131,0.47811943642805455,,,667284,0.6000617402043416,0.08642983487538586,0.11373967626186221
667285,0.5856992480007517,0.1126071869170904,0.47811761032356803,,,667285,0.6000539002251005,0.08643245026068405,0.11374013285037776
667286,0.585634614129945,0.11260708062399494,0.4781144845295483,,,667286,0.6000512948035606,0.08642990050246954,0.1137396314887823
667287,0.5855707252570376,0.1126075712882674,0.47810908146961606,,,667287,0.6000317905343574,0.08643012244800795,0.11373600654159641
667288,0.5855129280783591,0.11260759035827704,0.47810659059861427,,,667288,0.6000336293214533,0.08642814639611235,0.11373603070322386
667289,0.585456582773533,0.11260696565854739,0.47810447898688413,,,667289,0.6000175682333699,0.08642845478801425,0.11373545966680065
667290,0.5854044681928405,0.11260649870657086,0.4781032752046145,,,667290,0.6000145329520177,0.08643172270469765,0.1137359521935849
667291,0.585334530258854,0.112655200195722,0.47808493822868264,,,667291,0.6000051063805785,0.08643617050953331,0.1137232283196817
667292,0.5852840889420533,0.1126501076093184,0.47808268477311366,,,667292,0.6000004335888478,0.0864386518596796,0.11372227562173354
667293,0.5852335937134421,0.11264413353966345,0.4780793313243358,,,667293,0.5999951445409083,0.0864362575462314,0.11372049333310405
667294,0.585179768415756,0.11263771589686135,0.4780796532642011,,,667294,0.599985422376738,0.08643636915412126,0.1137221351464956
667295,0.5851226873303756,0.1126314533672342,0.47807770928671767,,,667295,0.5999805940136378,0.08643951134278816,0.11372164202391066
667296,0.5850657083564269,0.11262513639031199,0.47807624166150026,,,667296,0.5999702457954602,0.08643828291720496,0.11372171316192745
667297,0.5850032032350049,0.1126182986713613,0.4780746767220621,,,667297,0.5999661327856427,0.08643802047883231,0.11372206901592245
667298,0.5849361067328372,0.1126142614065333,0.4780716066663798,,,667298,0.5999521245084873,0.08643651705531111,0.11372100095797275
667299,0.5848648151762088,0.11261070733434154,0.4780713658155983,,,667299,0.5999514766686936,0.08643508178275165,0.11372352618808834
667300,0.5847816570558428,0.1126089409424266,0.4780707732905725,,,667300,0.5999391016696892,0.0864375167854156,0.11372556967233954
667301,0.5846922084027861,0.11260768862514141,0.4780674723922241,,,667301,0.5999268850972426,0.0864331525641755,0.11372571352117716
667302,0.5845940272048116,0.112608075944102,0.47806101015010793,,,667302,0.5999140737113482,0.08643271167502055,0.1137228904732642
667303,0.5844879861478205,0.11260987619504524,0.47805868649097166,,,667303,0.5998926407139735,0.0864324523523721,0.1137242823127522
667304,0.5843736932453569,0.11261121701773015,0.47805187278409633,,,667304,0.5998879005098096,0.08643233220930199,0.11372222214832631
667305,0.5842501640348221,0.11261428730525255,0.4780488420588991,,,667305,0.5998722691986299,0.0864342356705588,0.11372388587843754
667306,0.5841206152616097,0.112617868639826,0.4780415152968795,,,667306,0.599857688829504,0.0864321245311912,0.1137219161943396
667307,0.5839802617524181,0.11262206553703566,0.4780345502489428,,,667307,0.5998354425282013,0.08643092764760846,0.11372045978871395
667308,0.5838322215937792,0.112622645570575,0.47802466398298427,,,667308,0.5998100221807734,0.08643131932792894,0.11371594423105055
667309,0.5836751163925067,0.11262564422466724,0.4780178486416332,,,667309,0.5997976210789602,0.0864352633619967,0.1137154361295238
667310,0.5835103720300585,0.11262717761700745,0.4780151004649056,,,667310,0.5997741892370891,0.08643084616461386,0.11371939717219284
667311,0.5833359147739883,0.1126297490058102,0.47801087547268883,,,667311,0.5997532331222057,0.08643198260678886,0.11372216076525354
667312,0.5831524737677428,0.11262734327072854,0.47800026331903334,,,667312,0.5997223895312318,0.08643170565731245,0.11371830462377065
667313,0.582965461894763,0.11262872013197364,0.47799210311689955,,,667313,0.599710219551763,0.08643187741087525,0.11371822607972575
667314,0.5827670256019154,0.11263100443670054,0.4779813945115955,,,667314,0.5996804590410814,0.08643563529085585,0.11371520424155204
667315,0.5825559750345314,0.11263202363404666,0.4779738628139292,,,667315,0.5996544205113417,0.0864376349611028,0.11371623951200446
667316,0.5823415883127567,0.11262924119538475,0.47796366661152456,,,667316,0.5996328350077469,0.08643556864494795,0.11371509314102601
667317,0.5821251415190891,0.11262651468997754,0.47795120213649767,,,667317,0.5995949357709339,0.0864383440847222,0.11371075273749451
667318,0.5819000442641259,0.1126270498891572,0.47793860169546387,,,667318,0.5995698102727962,0.08643138793875725,0.1137083371190304
667319,0.5816684600051272,0.1126268194258232,0.4779318177244879,,,667319,0.5995486630193463,0.086431804098546,0.11371177642882599
667320,0.5814302708172554,0.1126268409859136,0.4779174008211941,,,667320,0.5995153304856816,0.0864309419690542,0.11370753760943605
667321,0.581188807930349,0.11262681213707404,0.4779074864457482,,,667321,0.599487412736649,0.08643156318801734,0.11370824294862139
667322,0.5809426061240167,0.1126239153700487,0.4778928410637699,,,667322,0.5994543491122002,0.08643406721031391,0.1137039804513823
667323,0.5806904827797504,0.1126214872395888,0.4778798020729119,,,667323,0.5994328057231277,0.08643476942975835,0.1137025099331163
667324,0.5804292604677359,0.1126198422138245,0.4778603500991224,,,667324,0.599386308059547,0.08643292826928285,0.11369418630311215
667325,0.5801679434368054,0.11261867865955624,0.4778492914149267,,,667325,0.5993597346075275,0.08643008066875105,0.11369554441213255
667326,0.5799044433713711,0.1126218480877832,0.47783843200592685,,,667326,0.5993159304092802,0.08643461075597275,0.1136962321153564
667327,0.5796333877078388,0.1126244419498683,0.4778275270406463,,,667327,0.5992838055397787,0.08643611209912469,0.11369822112323119
667328,0.579358815234859,0.11262770079609995,0.47781179739148805,,,667328,0.5992469821843882,0.08643423091981109,0.11369576928991275
667329,0.579076914246782,0.11263656916126796,0.4777954442952093,,,667329,0.5992118972568026,0.0864338596484685,0.11369364610874935
667330,0.5787961750152208,0.11264910844677084,0.477779214522229,,,667330,0.5991765601196751,0.0864399454000422,0.11369153463643039
667331,0.5785131559942627,0.11265831933837919,0.4777633456631408,,,667331,0.5991443341203124,0.08644306827186024,0.11369022928417741
667332,0.5782184561223794,0.1126687798988934,0.47774435078950817,,,667332,0.5991051929731286,0.08643680976517655,0.11368701061371811
667333,0.5779250242697604,0.11267808179644474,0.4777244264514242,,,667333,0.5990527838684647,0.08643975662526085,0.11368145229069379
667334,0.5776235411915136,0.1126908019693653,0.47770604600572814,,,667334,0.599024039988793,0.08644133257305706,0.11367980659862226
667335,0.5773258918705377,0.1127106880215698,0.47768817213265635,,,667335,0.5989920846751584,0.08644899560312205,0.1136785313675917
667336,0.5770235240055687,0.1127232565086568,0.47766752247690025,,,667336,0.5989522777123576,0.0864485437124775,0.11367454425124146
667337,0.576714193053953,0.112731285786934,0.47764525594508345,,,667337,0.5989159329962424,0.0864493294232116,0.11366934948633185
667338,0.5764063103629133,0.11273557200302489,0.4776269448858572,,,667338,0.5988638584554183,0.08644947691999466,0.1136670312851994
667339,0.5760995751350321,0.11274246835996554,0.47761486769831274,,,667339,0.5988372959166646,0.086455689503813,0.1136723993324131
667340,0.5757819453202238,0.11274687729096924,0.4775892441079717,,,667340,0.5987924458389545,0.0864551165201875,0.11366428048127969
667341,0.5754686610585844,0.11275350884686866,0.4775646306595783,,,667341,0.5987472293807179,0.0864529538597555,0.11365735121400135
667342,0.5751567485549433,0.1127584649272852,0.4775450043744854,,,667342,0.5987028493781368,0.08646202243176705,0.1136546400924073
667343,0.5748390946419599,0.1127577166567367,0.477527207954352,,,667343,0.5986616779182798,0.08645728774297146,0.11365512749992315
667344,0.5745234215074012,0.1127586730324436,0.47751048566299975,,,667344,0.5986231289813138,0.0864567580807431,0.11365676184148249
667345,0.5742083648449483,0.11275443455751805,0.47749469620354656,,,667345,0.5985923077058146,0.08646207868081675,0.1136592192057001
667346,0.5738869405228966,0.1127488867781593,0.4774696140071239,,,667346,0.5985404497791551,0.08645740062010765,0.11365224058167556
667347,0.5735665072481719,0.11274316607308235,0.47744440322988896,,,667347,0.598502784629666,0.08645412622019195,0.1136461247523706
667348,0.5732445129916337,0.11273391595434135,0.477421558829212,,,667348,0.598465589339911,0.08645762674846624,0.1136419924670493
667349,0.5729225552502928,0.11272142070672045,0.47740473709362286,,,667349,0.5984260772771848,0.08644830716821891,0.11364463367592195
667350,0.572601209820528,0.1127041670121268,0.4773811630215148,,,667350,0.5983759179484427,0.0864475823148019,0.1136389807684902
667351,0.5722873851205565,0.11268118589828315,0.47736124708172567,,,667351,0.5983414193783455,0.08644331421199569,0.11363761524361216
667352,0.571972721242241,0.11264888533291895,0.47734036574019656,,,667352,0.5983043268340271,0.08643555163140709,0.1136349538304322
667353,0.5716583541342757,0.11260821789703379,0.4773159760541667,,,667353,0.5982640014727414,0.0864345022752513,0.113627654672395
667354,0.5713494836140607,0.1125598490863596,0.4772990306409265,,,667354,0.5982280645921654,0.0864299034417306,0.1136276311681993
667355,0.5710419890684492,0.11250899627062955,0.47728179974824547,,,667355,0.5981899421007708,0.0864235868552527,0.1136272122190537
667356,0.5707381203746731,0.11244284858919855,0.47725943487956557,,,667356,0.5981500354002307,0.08641756073914005,0.11362034144186489
667357,0.5704386239076933,0.11236925609838715,0.47724169686554707,,,667357,0.5981150487966076,0.08640589405781746,0.11361821260448055
667358,0.5701364383525496,0.11228272837492574,0.4772215884439139,,,667358,0.5980712887468889,0.0863936589791666,0.11361256876961184
667359,0.5698403989687599,0.1121898660421503,0.4772088543192138,,,667359,0.5980342125390319,0.08638615902141461,0.11361375458656825
667360,0.5695508433995791,0.11209016016124256,0.47719177948987285,,,667360,0.5979999892521976,0.08637265055519736,0.11361046153038384
667361,0.5692588540143442,0.1119789281293441,0.47717410387385006,,,667361,0.5979637334362271,0.0863603986686052,0.11360589869786936
667362,0.5689727178436285,0.11185534979416185,0.47715633686254844,,,667362,0.5979238390309954,0.08633861871573105,0.1136004979790215
667363,0.5686831779590003,0.1117167086021822,0.47714368727661,,,667363,0.5978813611711287,0.08632073803161061,0.1135991511532772
667364,0.5684094517313152,0.1115749579121805,0.47713078352981075,,,667364,0.5978523729566636,0.08630029955619135,0.11359753195033614
667365,0.5681347014697233,0.1114188653157406,0.4771174301066936,,,667365,0.5978176063458227,0.08627974549435555,0.1135942963421943
667366,0.5678624338322082,0.11125280396402709,0.4771095847174782,,,667366,0.5977900326896521,0.08625886200729055,0.11359650288777184
667367,0.5676019997041524,0.11107677018431769,0.477096816419027,,,667367,0.5977553733812119,0.08623728939483649,0.11359180514787509
667368,0.5673452478711318,0.11088540367933716,0.47708611139408325,,,667368,0.5977168137025446,0.08621274534276921,0.11358790384857875
667369,0.5670948620546931,0.11067799996290975,0.4770770944800141,,,667369,0.597682165674472,0.08618405175209105,0.1135848905367151
667370,0.5668581766361391,0.1104552554009707,0.4770762010632062,,,667370,0.5976555438551143,0.08615690360300124,0.1135886067198486
667371,0.5666224584442234,0.11021857561585904,0.47707121540364966,,,667371,0.5976218690188182,0.08612348176185405,0.11358726532409805
667372,0.5663969595411528,0.10996686304539445,0.47706372624852866,,,667372,0.5975950992952637,0.08608911002630584,0.11358243655691055
667373,0.566179419381273,0.1097102139995866,0.4770619985842811,,,667373,0.5975683384308592,0.08605640562613875,0.11358249148715414
667374,0.5659666795465461,0.109435655008643,0.47706139053433716,,,667374,0.5975334050864898,0.08602319339623554,0.11358165595595235
667375,0.5657606351497146,0.10915132581861435,0.47706437138051583,,,667375,0.5975230463532013,0.0859858580415693,0.11358585852665959
667376,0.5655631427492653,0.10885517836099436,0.4770703664147883,,,667376,0.5974988708036012,0.0859451747169781,0.11359084845550879
667377,0.5653672091071817,0.10854775946977595,0.47706772053044855,,,667377,0.5974683810608826,0.08591133539200525,0.11358563564398574
667378,0.5651853786975393,0.1082306564114149,0.4770672861751363,,,667378,0.5974427726564733,0.08586894517368135,0.11358202736160765
667379,0.565009857744813,0.1079040914641081,0.47707453305900993,,,667379,0.5974178857041532,0.08582885583339335,0.11358516228611575
