field.frameNumber,field.x_m,field.y_m,field.z_m,,,field.frameNumber,field.x_m,field.y_m,field.z_m
717466,0.04068479615646205,0.0861530503010326,0.4788522210302375,,,717466,0.0365484831998935,0.0841092686778108,0.11328303080622315
717467,0.0407366289786267,0.08617347935247,0.47884993186412383,,,717467,0.036556975084200805,0.0841100058740306,0.11328134522166325
717468,0.0407968703769193,0.0861958863691578,0.4788515182068185,,,717468,0.03656852052167365,0.08411772650433536,0.11328357475674314
717469,0.04086209509820625,0.08621813011321784,0.47884662940696493,,,717469,0.036569022971148404,0.08411939647269914,0.1132795578345138
717470,0.0409335437644237,0.0862406306933599,0.478846657056754,,,717470,0.036578472537974596,0.08412199854547339,0.11328043361471594
717471,0.0410140856200549,0.0862640868694872,0.4788469758195544,,,717471,0.0365919405504309,0.08412744245393655,0.11328166243101034
717472,0.04109907811071045,0.08628683368960245,0.47884638281289016,,,717472,0.03661001923876725,0.08413046531912655,0.1132820008018212
717473,0.041187412371198745,0.0863152058377095,0.4788406601708038,,,717473,0.036609243734495506,0.0841345041171136,0.11327752761887465
717474,0.04128289424606505,0.08634408419342961,0.4788382702353244,,,717474,0.036620495212617454,0.0841340551520102,0.11327637838097826
717475,0.04138295684233325,0.08637486628562166,0.4788376389928095,,,717475,0.03663104234394435,0.08413910526851234,0.1132770562564949
717476,0.04148801258330205,0.0864050715604135,0.4788393918281221,,,717476,0.036649563295511,0.08413839077673635,0.11328013461261399
717477,0.0415903175147672,0.08642843271376795,0.4788387297623945,,,717477,0.0366677307949431,0.08414588222276284,0.1132806945990549
717478,0.041692749472598045,0.08644717253858811,0.47883784084234426,,,717478,0.0366738471609912,0.08414978257507336,0.1132812083102813
717479,0.041793690111734144,0.0864607996372284,0.47883508428465876,,,717479,0.0366854252024562,0.08414719540406265,0.11327979183998846
717480,0.041896436053801,0.0864681707499377,0.4788353954495054,,,717480,0.0366997440483174,0.0841525374496952,0.11328136222889029
717481,0.0419972146362281,0.0864658262032897,0.4788311077290983,,,717481,0.03670997986881515,0.0841468706078865,0.11327839393435654
717482,0.042092509525034696,0.0864612341434022,0.4788329204968146,,,717482,0.036727527587692696,0.08415426951742525,0.11328126361058724
717483,0.042187460481152,0.08644605772078699,0.4788332667547198,,,717483,0.03673891835758375,0.08415049027834745,0.11328277403437831
717484,0.0422804559881058,0.08642799298431836,0.47883297586272133,,,717484,0.03674715645286335,0.0841543586112353,0.11328361920588005
717485,0.042370944897281645,0.0864011077685138,0.4788290060311309,,,717485,0.036751959754126,0.0841460453797162,0.11328084139502814
717486,0.0424591624570803,0.08636923500545719,0.47882691593573945,,,717486,0.036766119331900146,0.08414341633624504,0.1132797179428314
717487,0.042541334104053,0.0863325107339829,0.4788275754389205,,,717487,0.0367779115373221,0.08413765759486541,0.11328129307613335
717488,0.04261283401626615,0.0862923501839675,0.47882698395137857,,,717488,0.036784621142613494,0.08413268205136185,0.11328151928590635
717489,0.0426760675279268,0.0862469310228992,0.4788250214638523,,,717489,0.0367964015630802,0.08412710196057499,0.1132801475808666
717490,0.0427317004315635,0.08620165104471406,0.4788247064592245,,,717490,0.036809993700760504,0.08411856044009305,0.11328030000199671
717491,0.04277719500641835,0.08615628104623345,0.4788241872895813,,,717491,0.03681182571636775,0.08410818307162135,0.11328029302630785
717492,0.042811428476275754,0.0861117662035028,0.47882581200758845,,,717492,0.0368219183263184,0.08410710658556164,0.11328207170115225
717493,0.042837079186513,0.0860678931169428,0.47882695319722157,,,717493,0.036823886107366394,0.08410191972843331,0.1132833915976933
717494,0.042852087737731595,0.08602887773513354,0.4788304435743058,,,717494,0.0368308121160265,0.0841012917758545,0.11328681058161286
717495,0.0428571022319678,0.0859928103141994,0.478828287666058,,,717495,0.036830069334309795,0.0840950116850876,0.1132845936922001
717496,0.042853774118173996,0.08595753391289895,0.47882877113474376,,,717496,0.0368233439605705,0.0840921233360018,0.11328496647552999
717497,0.042837089281044904,0.08592650828641185,0.47882987724212356,,,717497,0.036825751905607995,0.0840852022214427,0.1132856358920874
717498,0.04281067702502085,0.08590135246888145,0.478831865152501,,,717498,0.03682316319851625,0.0840782408100786,0.1132871416079031
717499,0.042771047122995495,0.08587848090345494,0.47883219448812864,,,717499,0.036817147291663646,0.08407772029209595,0.11328681111246805
717500,0.042718829192293,0.0858604267108129,0.4788339467217322,,,717500,0.0368147200650489,0.08407976069355555,0.11328765732299115
717501,0.04265375915170645,0.085847724447154,0.47883305846881163,,,717501,0.036800262705190254,0.08407794483561915,0.1132859022376124
717502,0.042576005967451,0.0858420841603222,0.47883278210537994,,,717502,0.036793083597236,0.08407672376012079,0.11328448121922191
717503,0.04248747074757525,0.0858392919821789,0.47883272581400105,,,717503,0.0367820507065255,0.0840701416164304,0.1132832253925421
717504,0.0423894623554585,0.0858420523640645,0.4788336152596294,,,717504,0.0367673981893075,0.084073500946449,0.11328282044496266
717505,0.0422852922342647,0.0858483116174529,0.47883372387106904,,,717505,0.03675143098140275,0.08407160787571,0.1132816226971218
717506,0.04217690011353805,0.08586088758992104,0.4788356205572566,,,717506,0.03674122736297695,0.08407490458703065,0.1132820913776004
717507,0.04206398200373255,0.08587643031203875,0.4788344162435026,,,717507,0.036719168826622295,0.08407476398100674,0.11327962426318525
717508,0.04195126114378075,0.08589881052327296,0.4788360490599807,,,717508,0.0367074406710741,0.08408029174243375,0.11327987785570001
717509,0.041830109594703346,0.08592432691771075,0.4788400297593418,,,717509,0.03669640834810475,0.08408497482725805,0.1132823997409851
717510,0.04171350252953275,0.085954001189435,0.47884510185278395,,,717510,0.03668701220400375,0.08409145762434264,0.1132860993706742
717511,0.04158564211981505,0.08599441086109115,0.47884530440595097,,,717511,0.03666407516856825,0.08409168029847061,0.1132850812355545
717512,0.041454653555244,0.08603407335658446,0.4788464324296292,,,717512,0.0366438668363752,0.08409252564067696,0.11328493870681924
717513,0.04131902524318365,0.0860859618683405,0.4788478710826285,,,717513,0.03662315316760365,0.0841023245110861,0.11328510911483135
717514,0.04118496709003355,0.08614427874413716,0.4788460072228626,,,717514,0.0366080693092628,0.0841107395039794,0.11328201050805664
717515,0.0410505286272011,0.0862070841206753,0.4788474216449412,,,717515,0.0365920199788606,0.08411830213224394,0.11328227333389526
717516,0.0409193663937086,0.08627484574038286,0.4788469156167161,,,717516,0.036569024076376355,0.08412192798453785,0.11328083617813064
717517,0.04078917337936025,0.0863470171709781,0.47884832157402035,,,717517,0.0365590969541721,0.0841280525580092,0.1132812256549223
717518,0.0406645125323103,0.08642109939487799,0.47884905943914957,,,717518,0.036538203603728295,0.0841400726225219,0.11328115950709955
717519,0.0405499519671491,0.0864984388582513,0.4788503296255874,,,717519,0.03653569253554345,0.08415044652412196,0.1132816060968175
717520,0.0404410726919919,0.0865791763774855,0.47885054979398856,,,717520,0.03651453556226015,0.08415770361897065,0.11328135286256194
717521,0.04033586236202465,0.0866604327215952,0.47885213611738286,,,717521,0.0365062393338508,0.08417005562105981,0.1132823739944759
717522,0.040242185578058046,0.08674310652566684,0.47885231802479133,,,717522,0.03649643342151625,0.08417921551522375,0.11328219510319926
717523,0.040155067195311644,0.0868274595690053,0.4788534429471434,,,717523,0.03647899451842275,0.08419087507637704,0.11328312976358204
717524,0.04007369269743255,0.0869119342529162,0.4788509044747286,,,717524,0.03646671371598105,0.084206764546055,0.1132804041212072
717525,0.0399996419030476,0.0870006692936273,0.4788528516491194,,,717525,0.03646281863381245,0.084215327484991,0.11328226787437025
717526,0.039928946514235245,0.08708536707702409,0.47884913717447275,,,717526,0.036445431390741495,0.08422751962113365,0.1132786011632361
717527,0.0398677054890193,0.08717305144068149,0.47884882232375825,,,717527,0.03644598472785745,0.08423619363606319,0.11327832889942875
717528,0.0398089699185925,0.08725879225783606,0.47884993448433155,,,717528,0.036439671029562,0.08425462750726656,0.1132795010677498
717529,0.03975886124626925,0.0873433887797304,0.4788516515580398,,,717529,0.036432055641912,0.08426696452768564,0.11328142992130445
717530,0.0397141905046945,0.08742624334621489,0.4788504858949081,,,717530,0.03642265015212515,0.08427454882777335,0.11328058621358936
717531,0.03967846607290075,0.08750370825064539,0.47884890805178204,,,717531,0.0364194311457305,0.08428154431250845,0.1132793314727964
717532,0.03964580209799015,0.08757392331970684,0.4788516543692519,,,717532,0.03641183719161935,0.08428988886630151,0.1132824057200626
717533,0.039622783873823744,0.0876398971466505,0.4788517066732012,,,717533,0.03641901303538985,0.0842994851902086,0.11328270296854401
717534,0.039611783036869255,0.0877019141081719,0.47885047802601033,,,717534,0.0364139041434334,0.08430317392558025,0.11328196036482854
717535,0.03960876433065,0.08775737721201485,0.47884744085856196,,,717535,0.03641421006835865,0.08431040630459649,0.1132793457191362
717536,0.0396150150381241,0.08780604375311285,0.4788420793774596,,,717536,0.036407635116623746,0.08431757832107545,0.11327449015187149
717537,0.03963364843801015,0.0878516286247778,0.47884651454138705,,,717537,0.0364247966830041,0.0843253446821955,0.11327930107550435
717538,0.0396564911816179,0.08789528918879345,0.4788466834215145,,,717538,0.03642333166730745,0.08433074444695896,0.11328005519954715
717539,0.03968913588543785,0.08793566828933505,0.4788423673366017,,,717539,0.0364230869910186,0.08432792731785566,0.11327645522369464
717540,0.03973372673122,0.0879744182835495,0.4788412900400134,,,717540,0.036432607806253,0.08433553829176675,0.11327600156818915
717541,0.039783068639514696,0.08801144868328921,0.47884159652712954,,,717541,0.03643756519345165,0.08434387400357066,0.1132769983069236
717542,0.039835982253562746,0.08804719945093956,0.47883788369475205,,,717542,0.03644689209897485,0.0843446511483382,0.11327403951260315
717543,0.03989154354157595,0.0880797400758158,0.4788361406886674,,,717543,0.03645085573803645,0.08435365615584176,0.11327301763698511
717544,0.039951855242590706,0.0881092683879432,0.47883692906734293,,,717544,0.036457852883835795,0.08435516838155885,0.11327459833577165
717545,0.04001154657452785,0.0881346604510075,0.4788363254103881,,,717545,0.03647003443141835,0.08436107014139621,0.1132746525326711
717546,0.0400786708914637,0.08815331521888445,0.4788338431333078,,,717546,0.03648201570857575,0.08436498308328444,0.11327286110655291
717547,0.0401429870694997,0.0881629930407108,0.47883138923821134,,,717547,0.0364807801369635,0.0843681504866976,0.11327112556119034
717548,0.040212181700701094,0.0881664890234696,0.4788347963057584,,,717548,0.03649161304661585,0.08436354289344256,0.1132752061718625
717549,0.0402830585420627,0.08816161782981985,0.4788321885820699,,,717549,0.03649556301542005,0.0843637038867493,0.11327323342359441
717550,0.040361682674455154,0.0881503842640351,0.4788295422490662,,,717550,0.036504490449326604,0.0843571142838723,0.11327126763305434
717551,0.0404501229082613,0.08813198826075244,0.4788309796297135,,,717551,0.0365240933103239,0.08435963934027155,0.1132732213418367
717552,0.04054375333638005,0.08810826061242195,0.4788308583644767,,,717552,0.0365275988008603,0.0843569180246575,0.1132738629440969
717553,0.040643636796843255,0.088078819600739,0.4788312857702466,,,717553,0.03654240189290535,0.0843586029710508,0.113274916888879
717554,0.04075244904173425,0.08804273124978705,0.4788346233408495,,,717554,0.03656138151253675,0.0843569105439882,0.11327892492003415
717555,0.0408632000123944,0.08800067019388765,0.47883453290285427,,,717555,0.0365825473264556,0.08434844279678234,0.11327953537599544
717556,0.04098002477958395,0.0879514216901039,0.47883385506835374,,,717556,0.036591803648043555,0.08434003262145925,0.11327972726573249
717557,0.04109749401761005,0.0878985596744945,0.4788270481588497,,,717557,0.0366010769312478,0.08433472049141144,0.11327376852248511
717558,0.04122018168345935,0.08784523205463775,0.47882751154411807,,,717558,0.0366173987757077,0.08432831676909344,0.11327510125850934
717559,0.04134108933570385,0.0877886988575634,0.47882211248922923,,,717559,0.03662503271153835,0.0843221047249266,0.1132706653517889
717560,0.04147177137247665,0.08772422747161825,0.47882390023772936,,,717560,0.036645948860722796,0.08430863382285156,0.11327340560483859
717561,0.04160570251652855,0.0876594950347877,0.47882836487655833,,,717561,0.03667138825478715,0.0843047179012914,0.1132787554083076
717562,0.0417467335259101,0.0875889144876093,0.4788250745076087,,,717562,0.036685735802693,0.08429868313714739,0.11327661034868815
717563,0.04189325057808255,0.08751539154371925,0.47882290156111706,,,717563,0.03669822796033475,0.08428393604636555,0.11327579323633591
717564,0.0420407470948906,0.08743916411911044,0.4788218810539489,,,717564,0.0367227313396559,0.0842815218317156,0.11327589629573614
717565,0.04219577121057025,0.0873599110256308,0.4788205861504383,,,717565,0.0367434681557914,0.0842703413327001,0.1132759980086482
717566,0.0423531781170857,0.0872804777422226,0.4788180458503639,,,717566,0.03676180754142515,0.08425858222367394,0.11327499272009285
717567,0.0425147799216044,0.08720306349426275,0.47881660619698174,,,717567,0.036781659351108345,0.08425410500125916,0.1132751530872554
717568,0.042672988974377546,0.08713006451048061,0.4788165861295257,,,717568,0.03680045606381295,0.0842374506214551,0.1132768959297568
717569,0.04283631640420115,0.08705888357609369,0.4788149426427454,,,717569,0.0368186780621203,0.0842298699447777,0.11327711466881685
717570,0.042996542450565445,0.08698988637120554,0.47880933384335284,,,717570,0.0368377996007417,0.08421965527933015,0.11327340582061116
717571,0.043159368994352146,0.0869212620718485,0.47880795195966785,,,717571,0.0368588467059589,0.084211664172109,0.1132739857303245
717572,0.043316900024843744,0.0868545830912648,0.4788087865040048,,,717572,0.036886122585223696,0.0842027241924564,0.1132766651861342
717573,0.043476813512364904,0.08678866454257454,0.47880457134384496,,,717573,0.0369033247160785,0.084195906636383,0.1132745646129002
717574,0.043635309597731944,0.08672585264592045,0.4788035940577377,,,717574,0.03692365546478075,0.0841890946782425,0.11327570520785425
717575,0.043796406446617295,0.0866659480272756,0.47879914856933065,,,717575,0.0369438079265294,0.08417005880505495,0.1132735935122971
717576,0.04395793943509495,0.0866132644848356,0.47880109268308596,,,717576,0.0369726276511416,0.0841737744023356,0.1132776689785881
717577,0.0441164832823457,0.08655971441940005,0.4787962977820234,,,717577,0.03699167265877265,0.0841652291881911,0.11327526899804854
717578,0.04427720521421405,0.08651663062977365,0.47879312906506954,,,717578,0.037003909865210446,0.0841579838925044,0.1132747917281111
717579,0.04444310303120545,0.08647911519824339,0.4787950949488639,,,717579,0.037031359448990595,0.08415956615451495,0.11327928856212925
717580,0.04460540351646495,0.08645428465323024,0.4787907077672122,,,717580,0.0370558261050759,0.0841565987894218,0.11327758421373385
717581,0.044761784620308304,0.08644049624684194,0.47878113230363417,,,717581,0.0370679973929915,0.08414951899932646,0.1132709737162268
717582,0.04491637767526585,0.08643730028189656,0.4787797005602423,,,717582,0.03709214348717085,0.0841534519747348,0.1132722664832877
717583,0.04506518918835705,0.0864478299155425,0.47877904957792816,,,717583,0.03711454885618655,0.0841510592305008,0.11327442425566445
717584,0.045212590984044496,0.0864731317936441,0.4787769083311207,,,717584,0.03712750921243025,0.084156244093062,0.1132753591505887
717585,0.045356439960977504,0.0865101338114013,0.4787704200082744,,,717585,0.03714622845309805,0.08415500071504345,0.1132719046291639
717586,0.045495124171280404,0.0865577171378221,0.4787671068045536,,,717586,0.0371631171839076,0.08416328531572485,0.11327160296756894
717587,0.0456300599901695,0.08661651924614805,0.4787629250722646,,,717587,0.0371811525402886,0.08417270195264681,0.1132704317305012
717588,0.04576157826379435,0.08668010134252625,0.4787577738711656,,,717588,0.03719371888826205,0.0841788265935101,0.11326843835015371
717589,0.0458879149984903,0.0867500125079098,0.47875426296040813,,,717589,0.03721634123251995,0.0841886351751097,0.11326778971711575
717590,0.04601253880647185,0.0868281652247266,0.47875189153895753,,,717590,0.0372326046914338,0.0841948054379148,0.11326851689325845
717591,0.046128288017842745,0.08691077505458164,0.47874946106965166,,,717591,0.037249618464239104,0.08421061730668986,0.11326895906669404
717592,0.04624205534743815,0.0869916486266009,0.4787455150390373,,,717592,0.037257223304327,0.08421885607856461,0.11326815132976145
717593,0.04634534375503485,0.08707689666337065,0.4787422959586527,,,717593,0.03727701669579095,0.0842267891096202,0.11326758917237159
717594,0.046442738506795,0.08716161256894055,0.47873931243087536,,,717594,0.037283095747706954,0.08423593182720626,0.11326747999236456
717595,0.04653331001072175,0.08724339545343485,0.4787376221678842,,,717595,0.0373011045282262,0.0842550090764504,0.11326812289601546
717596,0.04661373023106885,0.08732219995280305,0.47873510740594344,,,717596,0.0373119210587746,0.0842640653395059,0.11326795001960754
717597,0.04668371018164425,0.08739896215286025,0.4787297630875499,,,717597,0.03731320518030255,0.08427116326525286,0.11326495017202705
717598,0.04674576560192855,0.0874716392487908,0.4787301320640127,,,717598,0.03733282643789415,0.08428419646822319,0.11326692495000734
717599,0.04679502587809965,0.08753974907019635,0.4787260862837258,,,717599,0.037336274055288096,0.08428933412473874,0.11326461665132215
717600,0.04683864969428975,0.08760199368001005,0.47872407734631006,,,717600,0.0373407745492222,0.0842944282278898,0.11326413515325895
717601,0.04687150639304185,0.08766108557109531,0.4787231435400612,,,717601,0.037350993994398105,0.08430704893839405,0.1132642139034009
717602,0.0468932247817508,0.087714083229708,0.47872114691919776,,,717602,0.037345527984903454,0.0843114518064052,0.1132633756863065
717603,0.04689952830931225,0.08776592889446286,0.4787192863218297,,,717603,0.0373492619259163,0.08432018722512041,0.1132619861544997
717604,0.046893419148965,0.0878130596399437,0.47872145382595543,,,717604,0.03734767270383945,0.084324662524113,0.11326444023939515
717605,0.046874540064144946,0.08785347197840056,0.47872360219042986,,,717605,0.037348806475816995,0.0843312919942725,0.1132663904446453
717606,0.0468457736853466,0.08788440821191891,0.4787224787142311,,,717606,0.03734530063329565,0.08433220627137775,0.1132648999962621
717607,0.04680879755477385,0.08791082399417685,0.4787248715239832,,,717607,0.0373407518893763,0.08433762556734944,0.11326665594589541
717608,0.0467653040822722,0.08792255495050245,0.4787248874692538,,,717608,0.0373355766017329,0.0843410628203809,0.11326576236358045
717609,0.0467148052979522,0.0879259686351047,0.478723389693981,,,717609,0.037324864560494594,0.0843372631463454,0.11326331092326
717610,0.046659133593229554,0.08791658412849229,0.4787244068482056,,,717610,0.03731431051766585,0.08433518609286235,0.1132630999509686
717611,0.046602223330814596,0.08789635370911536,0.47872884413373873,,,717611,0.037309762700775156,0.0843377185373195,0.11326597972698005
717612,0.04653910497448175,0.08786486693066911,0.47872903130790867,,,717612,0.03729748879317555,0.0843338037626379,0.11326461020443065
717613,0.04647228632094405,0.08782680268635075,0.4787329125184828,,,717613,0.03729698997716785,0.08432959955280005,0.11326649480478074
