field.frameNumber,field.x_m,field.y_m,field.z_m,,,field.frameNumber,field.x_m,field.y_m,field.z_m
650080,0.5862824002371867,0.3200680949729223,0.48045014031376077,,,650080,0.5987609342246494,0.3190976646695177,0.11506614583153174
650081,0.5863733135792033,0.3199908862115598,0.4804524490588376,,,650081,0.5987762919768335,0.3190851333197516,0.11506571598303686
650082,0.5864745792961594,0.3199104384749905,0.4804561235055548,,,650082,0.5987880439699519,0.31907890229999647,0.11506618644576586
650083,0.5865855929976038,0.31983133850805223,0.48045827851012174,,,650083,0.5988038070381536,0.3190668587195425,0.11506499752981711
650084,0.5867056144883123,0.3197552311129632,0.4804608501491766,,,650084,0.5988158627285189,0.31906321049308617,0.11506383050580045
650085,0.5868370876860454,0.3196765405717157,0.480464799612763,,,650085,0.5988292443761075,0.31905387528144014,0.11506376043102105
650086,0.5869795794747783,0.3196022880068674,0.4804701220216606,,,650086,0.5988474986438916,0.31904436056578134,0.11506492203019165
650087,0.5871323053242945,0.31952636044998495,0.4804784820765161,,,650087,0.5988757224379728,0.31904049523949146,0.11506915671832135
650088,0.5872886598899604,0.3194568096746617,0.48048325621794497,,,650088,0.5988942591626683,0.31902773867255835,0.11506945662515991
650089,0.5874507277607601,0.3193909848791362,0.48048578017279486,,,650089,0.5989150157978657,0.319022025337226,0.115067454225808
650090,0.5876176543051861,0.3193295066548843,0.4804914551589131,,,650090,0.598934254227917,0.3190112270775088,0.11506847800293415
650091,0.587791547826565,0.31926824997969727,0.480497876701669,,,650091,0.5989644670490587,0.318999013007943,0.11507043882002845
650092,0.5879669620173362,0.31920762741411707,0.4805014871526362,,,650092,0.5989901951204932,0.3189905248377747,0.11506946862160436
650093,0.5881496358986782,0.3191546734576981,0.480504824827622,,,650093,0.5990107797273647,0.31898748003127575,0.115067926621748
650094,0.5883301422444887,0.3190991619115373,0.4805083760020604,,,650094,0.5990327003526354,0.31898223692026073,0.11506677937172635
650095,0.5885128647879498,0.31904681167605076,0.4805135539830475,,,650095,0.599054551353061,0.3189741719598995,0.11506726991783195
650096,0.5886962299095448,0.3189921554970828,0.4805179080899947,,,650096,0.5990817602611204,0.3189672610521417,0.1150671465518324
650097,0.5888827142734564,0.31893461463066697,0.48052420551965935,,,650097,0.5991081473387629,0.318963496080925,0.11506892965990606
650098,0.5890671575023813,0.3188793464011799,0.48052140968843304,,,650098,0.5991272321543634,0.3189546675236837,0.1150615511622679
650099,0.5892454889117256,0.3188268843924334,0.48052919824963924,,,650099,0.5991448759801404,0.318949670177951,0.11506496466643325
650100,0.5894228611520235,0.3187778665697202,0.48053554953672295,,,650100,0.5991718857831048,0.3189403443238707,0.11506728950726214
650101,0.5895989895667563,0.31872798204312186,0.4805376629478173,,,650101,0.599193344098837,0.3189361936393732,0.11506533297154739
650102,0.5897711907936714,0.3186830111822299,0.4805460651653912,,,650102,0.5992207753820641,0.31893071696209235,0.11506998802463911
650103,0.5899360958202557,0.3186401376155114,0.4805487513858553,,,650103,0.5992385791468,0.3189244248332551,0.1150689271082671
650104,0.5900959794758963,0.3185990370639591,0.4805544137324924,,,650104,0.5992593447925378,0.3189179090184123,0.11507110354447565
650105,0.5902520613991272,0.31855844923297405,0.4805577131691351,,,650105,0.5992775271613651,0.31891747397075976,0.11507100884426916
650106,0.5904036663765049,0.31851990344056724,0.48056060049699234,,,650106,0.5992994957524042,0.31890070091956385,0.11507073992322145
650107,0.5905534651844131,0.31848004837690574,0.48056580543686994,,,650107,0.5993185284469957,0.3189003346649282,0.11507282876744254
650108,0.5906995017502215,0.31843782001215293,0.4805713393021448,,,650108,0.5993403121402978,0.31889377635029165,0.1150754467549644
650109,0.5908318905153431,0.31840091731733916,0.48057060428167775,,,650109,0.5993602962974575,0.31889227040076873,0.1150721175047793
650110,0.5909575366722473,0.3183642472687194,0.48057573180087465,,,650110,0.5993735898761573,0.3188917922982743,0.11507469115399716
650111,0.591075150696733,0.31832936586141647,0.4805746134710107,,,650111,0.5993890374987724,0.31888323076896796,0.1150712735558375
650112,0.5911843228633074,0.3182928465623521,0.48057552317426266,,,650112,0.5994064673085442,0.318873803124169,0.11507015002711656
650113,0.5912870542479877,0.31825976025727365,0.48057760813229633,,,650113,0.5994200663078777,0.31887285502489415,0.11507029329594565
650114,0.5913862359962244,0.3182258903061616,0.4805805092369971,,,650114,0.5994259285180366,0.3188721734682427,0.1150711870146101
650115,0.5914764779694573,0.31819411099579054,0.4805802836773063,,,650115,0.5994329095915346,0.318867318746265,0.1150691881461207
650116,0.591559117616637,0.3181631119948844,0.4805839447229145,,,650116,0.5994506091574519,0.31886276086260745,0.11507149100626926
650117,0.591634909378322,0.3181358488423611,0.48058649256883884,,,650117,0.5994683221759585,0.3188548318059848,0.1150728270559343
650118,0.5917020613780962,0.3181108663822957,0.48058794791063136,,,650118,0.599473359334376,0.31885188312308355,0.1150730004850791
650119,0.5917631768587359,0.31808962060167467,0.48058670808167203,,,650119,0.599485679166649,0.31884882178030516,0.1150707637770299
650120,0.5918193796056812,0.31806740051455573,0.4805888890851847,,,650120,0.599493567510429,0.31884459056436065,0.11507196501070541
650121,0.5918764807981769,0.31804264224218226,0.48059263950732234,,,650121,0.5995011954074225,0.3188416346246036,0.1150747270768369
650122,0.5919287777968305,0.31801503383818536,0.48059578933914004,,,650122,0.5995090602159394,0.31883951922075804,0.11507700936806925
650123,0.5919765324362913,0.317988267806003,0.4805951369652933,,,650123,0.599518852184825,0.31883834436243463,0.1150756303012868
650124,0.5920231482223808,0.3179604160083329,0.48059435207389845,,,650124,0.5995216427175443,0.3188363095287158,0.11507400467845375
650125,0.5920682409261245,0.3179324918013577,0.4805939786894651,,,650125,0.5995255939020243,0.3188307384287984,0.11507284385752585
650126,0.5921158328989937,0.31790229140424375,0.4805973139078638,,,650126,0.5995342661862305,0.3188245396511612,0.1150754468807686
650127,0.5921631349753989,0.31787025596030954,0.4806000103531206,,,650127,0.5995388440943734,0.3188223645129957,0.11507735527749374
650128,0.592209498880597,0.31783949608319634,0.48060330028744047,,,650128,0.5995463057140109,0.31881789938241706,0.11507993172981615
650129,0.5922551410042647,0.31780869460602085,0.4806036945669522,,,650129,0.5995484841825292,0.3188174181225788,0.11507953860541945
650130,0.5922998546290111,0.31777543481763293,0.48060359506636224,,,650130,0.599556109106627,0.3188138929613787,0.11507878421916484
650131,0.5923439037085483,0.317742422343696,0.48060252804408904,,,650131,0.59956246855057,0.31881260286477786,0.11507706244078335
650132,0.5923878579706747,0.3177078187937195,0.4806030102402441,,,650132,0.5995660872470261,0.31880633936468583,0.11507683437010086
650133,0.5924231560799957,0.31767437750933036,0.4806026532295873,,,650133,0.5995746061919318,0.31879893336873366,0.1150760316209072
650134,0.592457062031795,0.3176439797659601,0.48060241720361235,,,650134,0.5995727758294522,0.31879708879926283,0.11507518712909835
650135,0.5924867613942095,0.3176131755926469,0.48060138343126013,,,650135,0.5995755881890761,0.3187899314084216,0.1150737062990599
650136,0.5925152027877012,0.31758080737231675,0.48059972765954795,,,650136,0.599580639443748,0.318787384748443,0.11507169488349064
650137,0.5925361150698449,0.3175505861895522,0.4806013377498553,,,650137,0.5995836001875623,0.31878939348840307,0.1150730662314521
650138,0.5925472485228271,0.3175207914101976,0.4806008987497463,,,650138,0.5995804006516399,0.31877990309394294,0.11507242054573495
650139,0.5925537618534504,0.3174930469465231,0.4806020648413337,,,650139,0.5995850901129596,0.31877827207226206,0.1150736424327298
650140,0.5925553348501127,0.3174660773188337,0.4806022875264555,,,650140,0.5995817176646139,0.3187747697676192,0.11507385328657566
650141,0.5925486228372164,0.31743984336694675,0.48060174557019486,,,650141,0.5995875619010731,0.3187687876622576,0.11507362597724904
650142,0.5925302023081778,0.3174183067415851,0.48059816573895053,,,650142,0.5995837453367467,0.3187633435132198,0.1150703865263897
650143,0.5925046776716472,0.31740152536276633,0.4805966805639993,,,650143,0.5995849798771451,0.31876002646644436,0.11506946849262731
650144,0.592475848140266,0.3173895332911083,0.48059549239646204,,,650144,0.5995763997393935,0.3187578680360486,0.11506870979872469
650145,0.5924422761259153,0.31738201601726157,0.48059806175332587,,,650145,0.5995778477095588,0.31875936361255824,0.11507199496599535
650146,0.5924009593895923,0.31737914910026777,0.48060025320772015,,,650146,0.5995697551112757,0.31875610032309304,0.11507483501840965
650147,0.5923536635181694,0.3173846083017739,0.48059927348772924,,,650147,0.599563442824642,0.3187625941773524,0.11507466527848945
650148,0.5923034487883416,0.31739372899811813,0.4805973069843318,,,650148,0.5995584438145323,0.31875851903669766,0.11507354392020469
650149,0.5922563818488475,0.3174068994630156,0.48059553230789126,,,650149,0.5995574156155639,0.3187638294210242,0.11507265666771205
650150,0.5922083365705981,0.317425482080326,0.48059809505820744,,,650150,0.5995450990149056,0.31876705493312585,0.11507587812966555
650151,0.5921574166209251,0.3174489908251542,0.4805991474005237,,,650151,0.5995385960991327,0.3187667156067424,0.11507773795895615
650152,0.5921042462336951,0.31747446661453105,0.480596186386002,,,650152,0.5995317589553095,0.3187717901809273,0.1150756425371316
650153,0.5920534682356862,0.3175022448478769,0.4805950414472932,,,650153,0.599525739117911,0.3187735289420295,0.11507531834899835
650154,0.5920058313731802,0.3175299180602069,0.48059590633661836,,,650154,0.5995181459835529,0.3187785232468035,0.11507692586703674
650155,0.5919568771037965,0.31755813777781045,0.48059622355885967,,,650155,0.5995165184326887,0.3187787948668376,0.11507812443312679
650156,0.5919097925255761,0.31758326771374723,0.4805933992656549,,,650156,0.5995068241144932,0.3187806692493089,0.11507599843521665
650157,0.5918600101857961,0.3176056321041343,0.4805897508812286,,,650157,0.5995014382084598,0.31878590101084425,0.11507321977446466
650158,0.5918155912891924,0.3176256861496921,0.48059065741979756,,,650158,0.5994925837155807,0.3187917399276706,0.11507482592256725
650159,0.5917754459191529,0.31763933348032347,0.4805877850647856,,,650159,0.5994851029456871,0.3187937992841233,0.11507260430414934
650160,0.5917402833981306,0.31765160292186556,0.48058778540600294,,,650160,0.599481703628243,0.3187895097421744,0.1150732240679781
650161,0.5917063788584416,0.3176572187041266,0.4805862396880085,,,650161,0.5994848353874636,0.3187948784951274,0.1150724638690037
650162,0.5916786028873069,0.3176610758824227,0.4805860535854678,,,650162,0.5994805391170326,0.3187955929644788,0.11507276842158021
650163,0.591657559914285,0.3176580129300761,0.48058518958523644,,,650163,0.5994761756086944,0.3187977272165104,0.115072276996354
650164,0.5916419706833045,0.31765321476278763,0.4805891641227549,,,650164,0.5994770988276944,0.3187956728299597,0.11507661368738975
650165,0.5916326284606745,0.3176419736446343,0.48058910984019915,,,650165,0.5994727723335542,0.31879070859057385,0.11507668662955625
650166,0.5916239724204198,0.31763030211335164,0.4805849967637149,,,650166,0.5994684209865537,0.31878431132356805,0.1150726825270047
650167,0.5916202898122618,0.31761435972979857,0.48058318334247474,,,650167,0.5994672061057371,0.31878293974424926,0.11507096836919554
650168,0.591622954093179,0.3175954193158535,0.4805832122671764,,,650168,0.5994651841468992,0.31878181433896824,0.1150709541090221
650169,0.5916267339588659,0.317571659174368,0.48058391872406175,,,650169,0.5994691951197582,0.3187785874679181,0.11507173274899235
650170,0.5916310968328442,0.31754609087472385,0.4805857009209267,,,650170,0.5994707912563888,0.31877455455130665,0.1150735273376377
650171,0.5916375523181695,0.3175138093223243,0.48058516284819197,,,650171,0.59946702497672,0.31877458465317304,0.11507288019178966
650172,0.5916432271540661,0.3174766920810891,0.48058660586987384,,,650172,0.5994666028878444,0.3187725160627451,0.1150743152398921
650173,0.5916539521912284,0.31743646513354434,0.48059075795432155,,,650173,0.5994730419450202,0.31876459453198236,0.1150784915706026
650174,0.5916638843287506,0.3173912832143171,0.4805912819025484,,,650174,0.5994822125966244,0.3187614457177802,0.11507915437864599
650175,0.5916726760149793,0.3173412920285384,0.48059170024609754,,,650175,0.5994771934603595,0.3187539929643707,0.11507943950406685
650176,0.5916792852942954,0.3172844468845101,0.4805903246351837,,,650176,0.5994801304325125,0.31874561322987316,0.11507817603095424
650177,0.5916877487869594,0.3172260808335977,0.4805925399265367,,,650177,0.5994853784498524,0.3187340120114567,0.1150805126491258
650178,0.5916970491198814,0.3171640912203496,0.48059549006061203,,,650178,0.5994891344544762,0.3187261552175159,0.11508357188085315
650179,0.5917058580967796,0.3170976223045576,0.4805908417304465,,,650179,0.599484134226171,0.3187193222857133,0.1150788891504172
650180,0.5917142621437614,0.31702449804462673,0.48058818557401306,,,650180,0.5994870635497936,0.3187145029736731,0.11507642596718215
650181,0.5917223887256686,0.31695037674586496,0.4805872437041411,,,650181,0.5994901432061683,0.3187014195828811,0.11507566412210754
650182,0.5917345200382294,0.3168694348211798,0.4805867498065543,,,650182,0.5994919197962414,0.3186930229769148,0.1150753050548581
650183,0.5917470612098436,0.31678183038580565,0.4805910337154242,,,650183,0.5994939670009543,0.3186819529083582,0.11507975625014205
650184,0.5917627198848815,0.3166944805432982,0.480589009111434,,,650184,0.5994960573940851,0.31867560144274554,0.1150778743696999
650185,0.5917803385672461,0.316604981671913,0.48058791910106247,,,650185,0.5994990761076855,0.31866000795198013,0.1150768837997879
650186,0.5918005200292316,0.31650938880999585,0.4805871595156591,,,650186,0.5995032529220491,0.3186476201482948,0.1150762638614181
650187,0.5918239021063204,0.31640780287105746,0.4805885091373649,,,650187,0.5995082046231954,0.31863227300046054,0.1150777402170606
650188,0.5918516244531449,0.31630454898216354,0.48058884629664483,,,650188,0.5995119983330661,0.3186218391329215,0.11507815177784345
650189,0.5918797403370897,0.3162020537207608,0.48058524102439637,,,650189,0.5995176039184089,0.31860172738400094,0.11507460701293185
650190,0.5919133364103792,0.3160964590182293,0.4805845464227933,,,650190,0.5995231894153338,0.3185947870079346,0.11507398916932834
650191,0.5919514704709923,0.315987634097532,0.4805821530316905,,,650191,0.5995277744134422,0.31857816096210934,0.1150715406571999
650192,0.5919960950582355,0.31587577484909823,0.48058501012177285,,,650192,0.5995329646371406,0.3185635671989486,0.1150742847819079
650193,0.5920423858956583,0.3157609416721092,0.48059072864426766,,,650193,0.5995469678473437,0.3185494370513806,0.1150800933509976
650194,0.5920899007935138,0.3156458756160516,0.480591167478831,,,650194,0.5995502823498369,0.3185372790320858,0.11508042692178605
650195,0.5921418120844126,0.3155309449573256,0.4805953752397417,,,650195,0.5995550067286654,0.31852224446733346,0.1150844784915772
650196,0.5921924066973081,0.315415205577144,0.48059258531651017,,,650196,0.5995591370288773,0.3185072873739788,0.11508158782994596
650197,0.5922393498233258,0.3153004572033776,0.48059908638050125,,,650197,0.5994674609723276,0.31847816604088275,0.1150860557714664
650198,0.5922922860762991,0.3151876139910982,0.4805974175907095,,,650198,0.5994755709886573,0.3184628131400862,0.11508436384619285
650199,0.592341820308506,0.31507362601202793,0.4805989156397729,,,650199,0.599485360842515,0.31844671598233365,0.1150859732397386
650200,0.5923940146348458,0.31495991777076715,0.4805951195219133,,,650200,0.5994894120186789,0.3184284966606711,0.115082133069052
650201,0.5924429474470296,0.31484501832019685,0.48059552340082756,,,650201,0.5994953682904991,0.3184155173834534,0.1150826866003597
650202,0.5924921745144198,0.3147309306808903,0.4805956797255144,,,650202,0.5995029668355751,0.31840249108581853,0.1150830432757439
650203,0.5925368435695892,0.31461837367573087,0.4805936811916536,,,650203,0.599504967736096,0.3183911923096465,0.115081259987674
650204,0.5925792242206881,0.3145070049997821,0.4805892198335538,,,650204,0.5995083934106846,0.3183765747185159,0.11507706953787905
650205,0.5926203528669676,0.3143992840950086,0.4805901904243728,,,650205,0.5995181647498349,0.3183649895160422,0.11507847742329574
650206,0.5926541182198577,0.31429178322127865,0.4805889633514233,,,650206,0.5995154876767033,0.31834680371126667,0.11507754439540485
650207,0.59268127869537,0.31418519979524234,0.4805872657463752,,,650207,0.5995193702943956,0.31833836248505154,0.1150765125363022
650208,0.5927065945799107,0.3140829885208317,0.48058776106322576,,,650208,0.5995225574347263,0.3183151851105056,0.11507750110924345
650209,0.5927239045376984,0.3139808201217037,0.4805885131780815,,,650209,0.5995292760910624,0.31830566749994904,0.1150791404084969
650210,0.592736525296395,0.31388208530294703,0.4805851634313877,,,650210,0.5995251760821321,0.3182916919810412,0.11507649245531705
650211,0.5927473494787887,0.31378489406703336,0.4805853216194659,,,650211,0.5995297429787227,0.3182807145549207,0.11507758475772405
650212,0.5927558290736259,0.31368859552054507,0.4805826874551218,,,650212,0.5995376418458858,0.31826224338898795,0.1150759053977472
650213,0.5927589100887989,0.3135951428118081,0.4805818532445445,,,650213,0.5995269142681936,0.3182548623803104,0.11507590240077209
650214,0.5927605483504645,0.3134979302961256,0.48058249678491416,,,650214,0.5995281219580917,0.31824103060404935,0.11507761047534115
650215,0.5927643302338612,0.3134001166856242,0.4805860456471557,,,650215,0.5995265745454978,0.3182258356766463,0.11508214216960175
650216,0.5927665757230608,0.313302157771872,0.480583365012502,,,650216,0.5995308775323549,0.31821895255696253,0.115080713422512
650217,0.5927661169711764,0.31320144689204277,0.4805826795006417,,,650217,0.599534023330313,0.31820279018439757,0.1150812417770323
650218,0.5927673342902862,0.3131009919841547,0.4805807739331061,,,650218,0.5995368308691706,0.318193500054963,0.1150806244846321
650219,0.5927685676063803,0.31299580779622693,0.4805786341653894,,,650219,0.5995293757680373,0.31818367055417773,0.115079664916165
650220,0.5927753244977114,0.3128883626662826,0.4805777845683227,,,650220,0.5995300382595772,0.3181683426046825,0.11508002175289175
650221,0.5927829732836307,0.3127773286665262,0.48057293636617154,,,650221,0.5995400819221687,0.31815516370422714,0.11507664453492206
650222,0.5927932852963695,0.31266256342868093,0.4805733182554722,,,650222,0.5995426269375841,0.31813778682622407,0.1150783288433098
650223,0.5928061296205052,0.3125492069863368,0.4805705303286343,,,650223,0.5995542382309953,0.3181247288096724,0.1150770344141131
650224,0.5928232069018533,0.312433044737751,0.4805648674310603,,,650224,0.5995613428097903,0.3181156962368532,0.11507283746916694
650225,0.5928422071539168,0.3123170792941139,0.48056393367117567,,,650225,0.5995696310151531,0.31810232313247994,0.11507331588302849
650226,0.592866584768921,0.3121986298841619,0.4805599045095196,,,650226,0.5995835489662911,0.3180894194763588,0.1150707802401491
650227,0.592893071698084,0.31207928945504126,0.48055703100540836,,,650227,0.599597309291551,0.3180744334767276,0.1150693699063103
650228,0.592919922687893,0.3119585518589312,0.4805567326910179,,,650228,0.5996046594681677,0.31806717573653587,0.11507059344940455
650229,0.5929508329848875,0.3118380661054585,0.4805555041937505,,,650229,0.5996173428177338,0.31804520539567493,0.1150706918721986
650230,0.5929818251111731,0.31171578813430983,0.4805536536985092,,,650230,0.5996277754969073,0.3180324623885977,0.11507034362939661
