field.frameNumber,field.x_m,field.y_m,field.z_m
678707,0.463476268478791,0.084530992907514,1.11698627675016E-06
678708,0.463467927539186,0.08453581490618,1.11895952503716E-06
678709,0.463456906194779,0.084552167168137,1.12464554213876E-06
678710,0.463446448957664,0.084557105357813,1.12677790259363E-06
678711,0.46342012935319,0.084575275101906,1.13391564648957E-06
678712,0.463404264125837,0.08459409686935,1.14064555972737E-06
678713,0.463380683849642,0.084607259955328,1.14607938167532E-06
678714,0.463354136679796,0.084624070462503,1.15281110901755E-06
678715,0.463337182718997,0.084640649409586,1.15891261681655E-06
678716,0.463306570333477,0.084652407752827,1.16432274160916E-06
678717,0.463286576266233,0.084675343031346,1.17256201292992E-06
678718,0.463249597877622,0.084677139988015,1.17527024812158E-06
678719,0.463221611052571,0.084693094139808,1.18182168107328E-06
678720,0.463191530768124,0.084708873896201,1.18844126145712E-06
678721,0.463177824969401,0.084724712242943,1.19412512139538E-06
678722,0.46314998592255,0.084741058284794,1.20078882948071E-06
678723,0.463092753069668,0.084744817369947,1.20528210151294E-06
678724,0.463065949341376,0.084761955082657,1.21212970338735E-06
678725,0.463046216220658,0.084775559319163,1.2174755112393E-06
678726,0.4630126511532,0.084788193946073,1.22332792501512E-06
678727,0.462992915032301,0.084797403529861,1.22731832774559E-06
678728,0.462973130413648,0.084809935259984,1.23233630866526E-06
678729,0.462929978134047,0.084828090743411,1.24045013555341E-06
678730,0.462901117270597,0.084837185642651,1.24493666697756E-06
678731,0.462884831322407,0.084851904638469,1.25042554099952E-06
678732,0.462866017578215,0.084868335597185,1.25658973021414E-06
678733,0.462844637482495,0.084881376239748,1.26185762527875E-06
678734,0.462822115290357,0.08489856112543,1.26847038406375E-06
678735,0.462794231330449,0.08490676395955,1.27262484495017E-06
678736,0.462782216779014,0.084919790309796,1.27734280047642E-06
678737,0.462762910446748,0.084935713835938,1.28337915900056E-06
678738,0.462745633801861,0.084955899155352,1.29061188874902E-06
678739,0.462735410244602,0.084970661931505,1.29576114094032E-06
678740,0.462719854894447,0.084984761092103,1.3010162637217E-06
678741,0.462714207500763,0.085001577668132,1.30653247815138E-06
678742,0.462697672194612,0.085018757486379,1.31279494530734E-06
678743,0.462697443631151,0.085041870384443,1.31993769048044E-06
678744,0.462679794003673,0.085053303595252,1.32449246009747E-06
678745,0.462677220212233,0.085073441152076,1.33085403436484E-06
678746,0.462664376138499,0.085083183622424,1.33460735923796E-06
678747,0.462679932559148,0.085105902309212,1.34070905055683E-06
678748,0.462678517809182,0.085118751108813,1.34475481333718E-06
678749,0.462677327630929,0.085132858653125,1.34917576943838E-06
678750,0.462686368550738,0.08515257727467,1.35473157641952E-06
678751,0.462677659875172,0.085167230088502,1.35975866993876E-06
678752,0.462581645841908,0.085139031893386,1.35665331590928E-06
678753,0.462599159324903,0.085159480980857,1.36194092736908E-06
678754,0.46261218746183,0.085175095826742,1.3659986288217E-06
678755,0.462620958980122,0.085183968446279,1.36822455787389E-06
678756,0.462646038738453,0.085198009869695,1.37109492787113E-06
678757,0.462658893232703,0.085218308905269,1.37660763438463E-06
678758,0.462688730472614,0.085240810044725,1.38181038106255E-06
678759,0.462699354386511,0.08525057344951,1.38420318296362E-06
678760,0.462714613701617,0.08526824717401,1.38876600508375E-06
678761,0.462741073340424,0.085284321572219,1.39218309264111E-06
678762,0.462765831319476,0.085297527179877,1.39481438943267E-06
678763,0.462805408513285,0.085311076180952,1.39668840942742E-06
678764,0.462829870333511,0.085333449786993,1.40216492838796E-06
678765,0.4628673764475,0.085357392190694,1.40736554726795E-06
678766,0.462889406079212,0.085367879131251,1.4093171633589E-06
678767,0.462940164140824,0.085388749189815,1.41279817417184E-06
678768,0.462958324511343,0.085397218565477,1.41435282902114E-06
678769,0.462986547572625,0.085411216264606,1.41702661871079E-06
678770,0.463006827868408,0.085419318991733,1.41834469441493E-06
678771,0.463029128214994,0.085430820399561,1.42059346519563E-06
678772,0.463054087633547,0.085431809193558,1.41944461568011E-06
678773,0.463100928508919,0.085446439860975,1.42122918767029E-06
678774,0.463111039815653,0.085447382802626,1.42093107774466E-06
678775,0.463137982862865,0.085457926808138,1.422614096247E-06
678776,0.463160440322592,0.085454095954855,1.42012430853766E-06
678777,0.463183426053245,0.08546539195941,1.42226979776838E-06
678778,0.463206521600154,0.085464487210097,1.42064543179332E-06
678779,0.463225793170675,0.085462706714568,1.41897367372801E-06
678780,0.463246438088297,0.085466425035855,1.41891809141148E-06
678781,0.463276337014818,0.085467596609916,1.41753790244836E-06
678782,0.463297566956899,0.085468521338848,1.41658652869081E-06
678783,0.463319782243602,0.085471932998312,1.41634488087794E-06
678784,0.463326389167629,0.085468911283664,1.41502795425463E-06
678785,0.463348828620627,0.085469645470317,1.41394735325706E-06
678786,0.46337380566098,0.085473426146537,1.41365866451748E-06
678787,0.463385023132598,0.08547216775694,1.4126170966855E-06
678788,0.463402563853906,0.085465786013368,1.40962685202251E-06
678789,0.463424189092341,0.085472475914463,1.41043078449865E-06
678790,0.463438953491016,0.085463581634302,1.40682723714924E-06
678791,0.463453394971451,0.085462286276195,1.4055864717144E-06
678792,0.463464681776794,0.085453709556304,1.40228344475135E-06
678793,0.463477920319624,0.085449980892132,1.4003621682801E-06
678794,0.463496649584349,0.085445016537734,1.39773990215364E-06
678795,0.463503942863215,0.085431580228217,1.39317049840937E-06
678796,0.463522512667173,0.085441367085298,1.39510769647799E-06
678797,0.463514647784433,0.085430372408543,1.39217438471784E-06
678798,0.463514819769829,0.085426216973238,1.39088257666842E-06
678799,0.463508041068789,0.085415928679199,1.38810388811139E-06
678800,0.463513844946592,0.08541469322006,1.38738472821309E-06
678801,0.46350648891689,0.085401048300383,1.38360427981432E-06
678802,0.463502599124828,0.085390687949572,1.38063508897668E-06
678803,0.463505254338311,0.085385497874303,1.37887948969961E-06
678804,0.463496143867104,0.085380246859689,1.37779042880259E-06
678805,0.463487496902602,0.08536953986539,1.37499141134034E-06
678806,0.463484746330745,0.085360317655972,1.37230693530999E-06
678807,0.46347294508246,0.085344713371282,1.36818102680625E-06
678808,0.46346896165482,0.085327823886771,1.36320330629269E-06
678809,0.463462405544793,0.085319286168954,1.36095163677519E-06
678810,0.463444250329951,0.08530386581206,1.35725257355279E-06
678811,0.46344412198461,0.08529387348146,1.35417780366964E-06
678812,0.463425972206469,0.085281341542565,1.35136938850255E-06
678813,0.463401574788295,0.085268774914339,1.34891418990257E-06
678814,0.463303680204947,0.085209622741454,1.33637027521782E-06
678815,0.463299214598825,0.085201791748517,1.33421483378138E-06
678816,0.463283348814662,0.085185611588257,1.3301480441541E-06
678817,0.463260296685266,0.085172552482737,1.3274625743076E-06
678818,0.463249016067106,0.085158300896684,1.32372359479271E-06
678819,0.463238059163893,0.085147552196618,1.32104626404672E-06
678820,0.463225709970094,0.085132056398338,1.31698573641037E-06
678821,0.463197427441465,0.085122417975288,1.31566007832706E-06
678822,0.463192244689157,0.085112906230553,1.31302796302357E-06
678823,0.463183192431386,0.085101625109903,1.31007545772777E-06
678824,0.463170146197143,0.085087269270794,1.3064071653357E-06
678825,0.463151952659433,0.085081312084861,1.30562935496403E-06
678826,0.463139200633575,0.085061307578173,1.30020153077393E-06
678827,0.463133531416393,0.085045718642063,1.29572317369986E-06
678828,0.463125049876973,0.085033382581028,1.29241201662911E-06
678829,0.463115345984625,0.085027995289168,1.29131548592953E-06
678830,0.463105199738218,0.08500769990636,1.28564615420323E-06
678831,0.463099266516074,0.084999915126445,1.28359045453719E-06
678832,0.46306555092517,0.084989277459783,1.28227303736184E-06
678833,0.463057008493727,0.084971253089641,1.27721080439569E-06
678834,0.463049101897315,0.084960363491778,1.27431233548636E-06
678835,0.463032687955725,0.084951568679489,1.27255556858774E-06
678836,0.463029459048004,0.084941931554516,1.26977096920333E-06
678837,0.463025389992562,0.084929495107347,1.26617182555355E-06
678838,0.463030039217472,0.084925197748822,1.26457544613601E-06
678839,0.46302423481882,0.084917626945054,1.26257824584197E-06
678840,0.463015441179477,0.084911759751448,1.26128066257891E-06
678841,0.463000713914993,0.084903930990803,1.25972363829163E-06
678842,0.462992239942881,0.084905973273887,1.26084720120101E-06
678843,0.462987117182033,0.084905366006517,1.26095827701622E-06
678844,0.462974873464137,0.084905181722322,1.26161461339036E-06
678845,0.462969338045063,0.084906644150779,1.26238814668334E-06
678846,0.462959680072208,0.084906613341483,1.26294120811332E-06
678847,0.462963578104978,0.084909554100488,1.263621262515E-06
678848,0.462958439818819,0.08490924314466,1.26382464321617E-06
678849,0.462950986378937,0.084911749560098,1.26503192832139E-06
678850,0.462945395792873,0.084918992629281,1.26759177837554E-06
678851,0.46294200354346,0.084920470489367,1.26824523538627E-06
678852,0.462937665872736,0.084925654969843,1.27009711003989E-06
678853,0.462924083476977,0.084924439901925,1.27051346582308E-06
678854,0.462920214102631,0.08492523176554,1.27098311103468E-06
678855,0.462908622642882,0.084928160384077,1.27256166354561E-06
678856,0.46290922164264,0.084932828912591,1.27396683269332E-06
678857,0.462901353720831,0.084933710237819,1.27469698346649E-06
678858,0.462892053095943,0.08493608870614,1.27597239818478E-06
678859,0.46288993064197,0.084938615047012,1.27687530626641E-06
678860,0.462887707079856,0.084945281468151,1.2790611582103E-06
678861,0.462876501547852,0.084949959577774,1.28115688108332E-06
678862,0.462873100600799,0.084952647210462,1.28218401235225E-06
678863,0.462866414601471,0.084951927899082,1.2823515835314E-06
678864,0.462869132102911,0.084960798534394,1.28492953915815E-06
678865,0.462880658192708,0.084972535474458,1.28787854947188E-06
678866,0.462879399011651,0.08497838230192,1.28975541446863E-06
678867,0.462883578421955,0.084985323650744,1.29165310575052E-06
678868,0.462874947124486,0.084989812717406,1.29354057049058E-06
678869,0.462872395706749,0.084989118224638,1.29347496330423E-06
678870,0.462884270691752,0.084995884606311,1.2948704266047E-06
678871,0.462871084550784,0.08500087141234,1.29717673835739E-06
678872,0.46287470752096,0.085000936306525,1.29698572243209E-06
678873,0.462883009811987,0.085000272635936,1.29629740813764E-06
678874,0.462868712868234,0.084993892536091,1.29516217367565E-06
678875,0.462877720572739,0.084995416197073,1.29510747648443E-06
678876,0.462875288105319,0.085003073228098,1.29761106126836E-06
678877,0.462880091501804,0.085000272482915,1.29646734853273E-06
678878,0.462890614260821,0.085002001617265,1.2963877820682E-06
678879,0.462868451129605,0.084996726386348,1.29605155213541E-06
678880,0.462883543488712,0.085003865019552,1.29737443282929E-06
678881,0.462868605222731,0.085000552784731,1.29722287195433E-06
678882,0.462877702731104,0.08500087485156,1.29679229893265E-06
678883,0.462863611452389,0.084997808310583,1.29666718901023E-06
678884,0.462877729702222,0.084995204547196,1.29504165896632E-06
678885,0.462866963083455,0.084995595193346,1.29578929980445E-06
678886,0.462863052805302,0.084993127966549,1.29525602510228E-06
678887,0.462864844710219,0.084990266051488,1.29426885908668E-06
678888,0.462863255517187,0.084980953653196,1.2914889143123E-06
678889,0.462862465716388,0.084980348407342,1.29134822446364E-06
678890,0.462867315346293,0.084972259521643,1.28857063258492E-06
678891,0.462861556876977,0.084963875572206,1.28631993306927E-06
678892,0.462861318471555,0.084965520259381,1.2868411418121E-06
678893,0.462842184992566,0.084946125256101,1.28197303717048E-06
678894,0.46285491157445,0.084946750481235,1.28142458799552E-06
678895,0.4628529186435,0.084931957007155,1.27697746099553E-06
678896,0.462852236988733,0.084927023464088,1.27549536022009E-06
678897,0.462855280506571,0.084921468639806,1.27360463159087E-06
678898,0.462858438050472,0.084921939151852,1.27356584334049E-06
678899,0.462835414717576,0.084910285562373,1.27131224320065E-06
678900,0.462846250583253,0.084901659319509,1.26802020694594E-06
678901,0.462825375944277,0.084894516248499,1.26703276787099E-06
678902,0.462833932681616,0.084891358688963,1.26556036439407E-06
678903,0.462838323124773,0.084880258215165,1.26188056165377E-06
678904,0.462820754598899,0.084873280640126,1.26075159478933E-06
678905,0.462823510061742,0.084866979344125,1.25864738736992E-06
678906,0.462802721537198,0.084857404537847,1.2569048362665E-06
678907,0.462799439628415,0.084847324720177,1.25398677086608E-06
678908,0.462798815667242,0.084852029170043,1.25547425589012E-06
678909,0.462785422735211,0.084838998018076,1.25223477293046E-06
678910,0.462783781747668,0.084835153915241,1.25114460153286E-06
678911,0.462773485261114,0.084834873496702,1.25165786057924E-06
678912,0.462766157207076,0.084831230152366,1.25096088005039E-06
678913,0.462756138224198,0.084824546205579,1.24948273499959E-06
678914,0.462737723299864,0.084821364720056,1.24957401603787E-06
678915,0.462737385967234,0.08482483433082,1.2506639053278E-06
678916,0.46271827061944,0.084812494646371,1.24797103617791E-06
678917,0.462708945179012,0.084815063984555,1.2493067721997E-06
678918,0.462690336492359,0.08481386638426,1.25002129147678E-06
678919,0.462680891643204,0.084804931991876,1.24781552840458E-06
678920,0.462680295095866,0.084814907680218,1.25092738917365E-06
678921,0.462661316198352,0.084818578073488,1.25316505955597E-06
678922,0.462660009627877,0.084818826412813,1.25331776834603E-06
678923,0.462653425662061,0.084823437570938,1.25512363940983E-06
678924,0.462639690987888,0.084821984970728,1.25547559570727E-06
678925,0.462625304849653,0.084826773052354,1.2577905072475E-06
678926,0.462608774074685,0.084825169454115,1.25825875579855E-06
678927,0.462601612475955,0.084828304563882,1.25964296937564E-06
678928,0.462604938239921,0.084836069481227,1.26184442350574E-06
678929,0.462593097120733,0.084844222418761,1.26504901798441E-06
678930,0.462585174052676,0.084849929191984,1.26727084459599E-06
678931,0.462579890769547,0.084861239683806,1.27106743669225E-06
678932,0.462586335414454,0.0848720686247,1.27403235195001E-06
678933,0.462589375165658,0.084888573619352,1.2789464405305E-06
678934,0.462582949312817,0.084895557161463,1.28147488964725E-06
678935,0.462577307987817,0.084911187425848,1.28662481940767E-06
678936,0.462566094502423,0.084925563474407,1.29171244311888E-06
678937,0.462567253079627,0.084947741705786,1.29848608076966E-06
678938,0.462571111921674,0.084962148487088,1.3027052407355E-06
678939,0.462549510897889,0.084972063570697,1.30702189082843E-06
678940,0.462547242775042,0.084995915171586,1.31451129908866E-06
678941,0.462545202492685,0.085020892070912,1.32233454630537E-06
678942,0.462528678663423,0.085039123952373,1.32892086590619E-06
678943,0.462542762425221,0.085066609061366,1.33657859346936E-06
678944,0.462539725211282,0.085093309070169,1.34499142329103E-06
678945,0.462536541663741,0.085126436818159,1.35539548479224E-06
678946,0.462528845804776,0.085149352571106,1.36291237873287E-06
678947,0.462523506671623,0.085167702440528,1.3688835986958E-06
678948,0.462513664059356,0.085196268584893,1.37826846435818E-06
678949,0.462531005815517,0.08522030032635,1.38467118837582E-06
678950,0.462523431659029,0.085244967709819,1.3927213036169E-06
678951,0.462523469330624,0.085266185231564,1.3992638906446E-06
678952,0.462515118922946,0.085291981253744,1.40770736223317E-06
678953,0.462527091929807,0.085311235785057,1.41294922556545E-06
678954,0.462526998986031,0.085337983332193,1.42120521895439E-06
678955,0.462526762768687,0.085367568587086,1.43034488064853E-06
678956,0.462522238340866,0.085383116091805,1.43540422425925E-06
678957,0.462529412069682,0.085409096164088,1.443000207213E-06
678958,0.462535149126149,0.085434671249648,1.45055495187618E-06
678959,0.462545419642868,0.085452305614306,1.45539622398161E-06
678960,0.462529608482248,0.085466265526768,1.46062329492436E-06
678961,0.462542317389764,0.085491311774966,1.46760881236663E-06
678962,0.462545263336373,0.085510136270901,1.47324384069947E-06
678963,0.462535156064397,0.085527054062515,1.47905105846169E-06
678964,0.462553707911545,0.085539118602222,1.48169187896841E-06
678965,0.462564716782646,0.085567419399363,1.48978032343816E-06
678966,0.462571647597897,0.085579907569501,1.49322872794455E-06
678967,0.462550016516346,0.085587724003047,1.49689977668732E-06
678968,0.462558256243258,0.085606365298077,1.5021699391049E-06
678969,0.462556701564298,0.08561469702045,1.50483050992412E-06
678970,0.462563496216941,0.085634485575941,1.51053873098661E-06
678971,0.462576456537083,0.085648858047212,1.51421715821609E-06
678972,0.462580250722332,0.085659806039659,1.51737318260237E-06
678973,0.462573641797025,0.085665757855841,1.51959404787183E-06
678974,0.4625737699542,0.085686665237921,1.52603569869569E-06
678975,0.462576092137555,0.085696294248984,1.528870610501E-06
678976,0.462576889535394,0.08570040171827,1.53009115777536E-06
678977,0.46258874173585,0.085713509464951,1.53344401321309E-06
678978,0.462578026258216,0.085712800379187,1.53384945089652E-06
678979,0.462592463008154,0.085721518130792,1.53569761635053E-06
678980,0.462592948148141,0.085732879764544,1.53917398049153E-06
678981,0.462593968427714,0.085732596311483,1.53902711619303E-06
678982,0.462598191485227,0.085742509227447,1.54183887807191E-06
678983,0.462605273784213,0.085745435253605,1.54232890886563E-06
678984,0.462613385035913,0.085748499660045,1.54280168940257E-06
678985,0.462606393969709,0.085737490622358,1.5398130492339E-06
678986,0.462606940237271,0.085738686105356,1.54014998993146E-06
678987,0.46260903791908,0.085736494340403,1.5393517283635E-06
678988,0.462606908678651,0.085723965127291,1.53561097804289E-06
678989,0.462599491695995,0.085720161179827,1.53486963772043E-06
678990,0.462612236106022,0.085715491718658,1.53268694441655E-06
678991,0.462604680013204,0.085701698006165,1.52887225252085E-06
678992,0.462607421864031,0.085700119531478,1.5282256451421E-06
678993,0.462592469039637,0.085679896710213,1.52285867277557E-06
678994,0.462578559089859,0.085669059117129,1.52032593303542E-06
678995,0.462564680518163,0.085656039353651,1.51711825058243E-06
678996,0.462558989444597,0.085639985964716,1.51249790097951E-06
678997,0.462556644690086,0.085632324371868,1.5102711763415E-06
678998,0.462541477735972,0.085615938056197,1.50610008975427E-06
678999,0.462535377383877,0.08560361133021,1.5026531110518E-06
679000,0.462528613172368,0.085585713769632,1.49752641526169E-06
679001,0.462527125702189,0.085571521952859,1.49323543424673E-06
679002,0.462503444304939,0.08556050169955,1.49121552489584E-06
679003,0.462500955412884,0.085544668208777,1.48647648273714E-06
679004,0.462475955352368,0.085525261601153,1.48194651899969E-06
679005,0.462479098977201,0.085517894516354,1.47949094764233E-06
679006,0.462452551285243,0.085493085330991,1.47338464628888E-06
679007,0.46244093858729,0.08548002203216,1.47003155059888E-06
679008,0.462433346661904,0.085472776847546,1.46823891228332E-06
679009,0.462422608560991,0.08546225165336,1.46561777925047E-06
679010,0.462397995420599,0.08544803913887,1.46266745426615E-06
679011,0.46237927590681,0.085432934866359,1.45909876020367E-06
679012,0.46236361820332,0.085415779391733,1.45471900386829E-06
679013,0.462344101462864,0.085404589200968,1.45240408944147E-06
679014,0.462316369900648,0.085390903044041,1.44979776933729E-06
679015,0.462311169947406,0.085379165978738,1.44648023098215E-06
679016,0.462290882266499,0.08536830830234,1.44431279092139E-06
679017,0.462272127145524,0.08534828386122,1.43922849005218E-06
679018,0.462243774927522,0.085335626934708,1.43697580023971E-06
679019,0.462229347717022,0.085333774753411,1.43724484069629E-06
