field.frameNumber,field.x_m,field.y_m,field.z_m,,,field.frameNumber,field.x_m,field.y_m,field.z_m
681868,0.4246374041617613,0.08333945946495015,0.4793368580105112,,,681868,0.4185133234120557,0.08390468843112005,0.1137902876252503
681869,0.42451244976981295,0.0835773578346007,0.47933759881989574,,,681869,0.4184981448610212,0.08394255071930296,0.11378895125043645
681870,0.4243905896512775,0.08381159018451526,0.4793365346362364,,,681870,0.41847689794225135,0.08396712606351686,0.11378609621740415
681871,0.42427170583415785,0.0840460934517951,0.4793395146589061,,,681871,0.4184735617788111,0.08400281064907661,0.11378719470818816
681872,0.42415394472831613,0.0842795128882742,0.479340119766564,,,681872,0.4184466171111098,0.0840346667711175,0.11378645006663005
681873,0.42403698523421135,0.08450858711573585,0.47933593319072065,,,681873,0.41842491058833353,0.08406159361819834,0.11378098002468585
681874,0.42392493299719514,0.08473889936260445,0.4793363648497839,,,681874,0.41842056425522695,0.08409270823385989,0.11378007187834954
681875,0.42381763277538353,0.08496826588840556,0.47933871881979284,,,681875,0.4184006701274755,0.0841226164194934,0.11378152717683446
681876,0.4237070257604133,0.0851924405724467,0.4793391025597278,,,681876,0.4183902484008209,0.08415725213507749,0.11378092766461309
681877,0.4235992055049035,0.085419924137293,0.4793424099407163,,,681877,0.41837340385967214,0.0841834127654908,0.11378354873498425
681878,0.42349164520944454,0.08563443660008556,0.4793426219842789,,,681878,0.4183686265571859,0.0842185454824437,0.1137829566743993
681879,0.42338208675275935,0.08584428190917034,0.47934017039905596,,,681879,0.4183535517620893,0.08424229739323265,0.1137799613353534
681880,0.4232794715574125,0.08604518221118546,0.4793421608743038,,,681880,0.41834234830241623,0.0842704738069703,0.11378150353644895
681881,0.4231749460813881,0.08623588251249631,0.4793407193334649,,,681881,0.4183278775629201,0.08429507550567736,0.113779700946412
681882,0.4230707519812273,0.08642537345798099,0.47934244891197353,,,681882,0.4183183481026011,0.08431855135002385,0.11378110668987874
681883,0.4229710635998531,0.08660392359162475,0.4793439860292916,,,681883,0.4183132519128484,0.08434411519189985,0.11378234003025564
681884,0.4228751793794593,0.0867658315014328,0.4793410467186662,,,681884,0.41830009590905964,0.08436564123645354,0.1137792507563824
681885,0.4227857502606356,0.08692159821090979,0.4793442076289645,,,681885,0.4182855057553494,0.08438279767295205,0.11378241906175016
681886,0.42269751299540326,0.0870634027002014,0.47934312990920847,,,681886,0.41827839159362595,0.0844032248956767,0.11378121478493816
681887,0.4226105388595024,0.08719824654021645,0.4793445372264563,,,681887,0.41826882144665745,0.08441962663751185,0.11378257567878255
681888,0.42252560372862685,0.08732054434529604,0.4793322276138472,,,681888,0.4181839715558143,0.08439809783401585,0.11377138656860565
681889,0.42244487956605864,0.0874374999619904,0.4793352039758635,,,681889,0.4181743121116487,0.08441459149858749,0.11377434276766629
681890,0.4223666862229398,0.08754022943827565,0.479331482611021,,,681890,0.4181622470225258,0.08443185474055451,0.11377057158935795
681891,0.42229104051747623,0.0876327128243587,0.47933127503213024,,,681891,0.4181499868237377,0.0844412536542182,0.1137703563989831
681892,0.42222316562013085,0.0877083951599283,0.47932829237257457,,,681892,0.4181414641430175,0.0844500188180744,0.113767296551212
681893,0.4221550870947838,0.08777626848818866,0.4793275928818251,,,681893,0.4181386745894198,0.08446233517448715,0.11376637332233924
681894,0.4220940293190514,0.08783414010698129,0.47933173986298544,,,681894,0.4181264294817655,0.08447348112412464,0.11377041382866354
681895,0.422031143997318,0.0878798849454416,0.47933076379539824,,,681895,0.41810909648785577,0.08447522006801819,0.11376935340085781
681896,0.4219731304391545,0.08791431923592985,0.4793323850279303,,,681896,0.4181024496965535,0.08447903700838799,0.11377071357447274
681897,0.42192157819769405,0.08793976673081205,0.47933429533341587,,,681897,0.4181056147455098,0.08448473551069735,0.1137722347316089
681898,0.4218735306161606,0.087951711458849,0.4793329130260769,,,681898,0.41809814425581804,0.08448679718427604,0.1137705246487445
681899,0.42183463015023265,0.08795287851242445,0.4793316915653645,,,681899,0.41809204768585506,0.0844862628852011,0.11376898200402265
681900,0.42180409834119026,0.0879467373514759,0.4793336731701065,,,681900,0.4180896668944962,0.08448406540956446,0.11377063910991861
681901,0.42177632978294866,0.0879358522192052,0.47933450859815085,,,681901,0.4180874559896835,0.08448614487930906,0.113771093171161
681902,0.42175475431125886,0.08791802324214304,0.4793357887435104,,,681902,0.418085381237722,0.0844801115128633,0.1137720659352584
681903,0.42173394464319325,0.08789842089049496,0.47933293101787516,,,681903,0.41807948209524254,0.08447516427806755,0.11376892131931271
681904,0.42171922978006393,0.0878778595274502,0.47933369007838794,,,681904,0.4180754373248706,0.08446832774111959,0.11376944560310956
681905,0.4217083163849547,0.0878570511932036,0.4793369746615282,,,681905,0.418082936990091,0.08447353137170666,0.1137723054344537
681906,0.42170266577801063,0.08784144469991495,0.47933531549214126,,,681906,0.4180741011099327,0.08446896071674176,0.11377057589124315
681907,0.42170289935099947,0.08782678861292531,0.4793367309592528,,,681907,0.41807202977588664,0.0844674524668172,0.11377189318621764
681908,0.421705077144236,0.08781645375713085,0.47933904684099515,,,681908,0.41807769480254614,0.08446922827717535,0.113774063359025
681909,0.42171277156607545,0.0878132475535965,0.4793386099924381,,,681909,0.41807225838773365,0.08446598377456074,0.1137737573900149
681910,0.4217277805890731,0.0878127238007764,0.4793391486561422,,,681910,0.4180795662432989,0.08446418303752326,0.11377438452250241
681911,0.421747417652814,0.08781948359014219,0.4793391896770543,,,681911,0.4180781832013917,0.0844673842355916,0.1137746685351671
681912,0.4217731803049486,0.087831430837744,0.4793390894011766,,,681912,0.4180888101773367,0.0844713667111265,0.11377479361305201
681913,0.4218074515144774,0.08784848975922804,0.4793359495472366,,,681913,0.4180886001254156,0.08446895967748469,0.11377218234647535
681914,0.4218482921917617,0.0878695438535383,0.47933500920079897,,,681914,0.41808983466441224,0.08447538290391585,0.1137717826069541
681915,0.42189346647011594,0.087897840052768,0.47933448430825687,,,681915,0.41809612390914375,0.08448316912617725,0.11377185057611885
681916,0.42194636232188404,0.08792851935149329,0.47933854269067144,,,681916,0.41810363428536657,0.08448659053626505,0.1137766388542516
681917,0.42199786485834295,0.08796290004042351,0.4793358290016124,,,681917,0.41811295091642053,0.0844901015143632,0.11377466300705424
681918,0.42205523737349104,0.0880035520789334,0.47933536595131654,,,681918,0.41811966968683045,0.08449018990043644,0.1137751293795225
681919,0.4221142493945065,0.0880452717775562,0.47933461970112623,,,681919,0.41813091866827157,0.0844976646217463,0.11377523118944666
681920,0.42217689920029033,0.088089988513854,0.4793363010327233,,,681920,0.4181335141562841,0.08450901528614885,0.11377789716629876
681921,0.422242974249297,0.08813480062380585,0.4793362516607459,,,681921,0.4181407320495528,0.0845157080569002,0.1137788789445518
681922,0.42231315645978956,0.08818042328329,0.47933457668085294,,,681922,0.41815371189173106,0.0845184737194983,0.11377827716528299
681923,0.42239162186590046,0.08822549892399839,0.4793304964722388,,,681923,0.41816371845562944,0.0845272661182339,0.11377534758754945
681924,0.4224765700352324,0.08826797347257255,0.4793278435960636,,,681924,0.4181749701587317,0.08453575626967735,0.1137738998852995
681925,0.4225663004000455,0.0883113471605539,0.4793265377050029,,,681925,0.4181876780227013,0.08453832782888425,0.113773927318428
681926,0.42266447126080875,0.08835008242929021,0.4793219441054634,,,681926,0.41819699500733487,0.0845400032135029,0.11377079320926711
681927,0.4227649533778541,0.08838784687770035,0.479318732124696,,,681927,0.4182046840356436,0.08454293683991754,0.11376909174795115
681928,0.4228716392356905,0.08842585766392129,0.4793162160842765,,,681928,0.4182240709028071,0.08454639295196739,0.1137680402833578
681929,0.4229844770265546,0.08846491463280805,0.47931935136674264,,,681929,0.4182454135905286,0.08455223999569406,0.11377270424195635
681930,0.4231015993326068,0.0884988837445736,0.47931241166631067,,,681930,0.4182489260566623,0.08455397221555895,0.11376760154811905
681931,0.42322102055952093,0.08853541810609675,0.4793076389050531,,,681931,0.4182625921563795,0.08455860923485986,0.11376459363102215
681932,0.4233495640586511,0.08857023623694085,0.47930675569213915,,,681932,0.418278052119722,0.0845637481554012,0.11376558593263661
681933,0.423475177920699,0.0886023522712209,0.4793081622278663,,,681933,0.4182980392228489,0.0845680648507657,0.1137687789472792
681934,0.42359962334683887,0.0886361166463869,0.4793074898254456,,,681934,0.41832487128071877,0.0845796265399133,0.11376974779612155
681935,0.42372765926424055,0.0886684537696565,0.4793050119499128,,,681935,0.4183313066862946,0.0845749697023119,0.11376945726845035
681936,0.42385561968597696,0.08869650948292661,0.47930360745104406,,,681936,0.4183469801812842,0.08458541192345564,0.1137699253683892
681937,0.42398739534089697,0.088726974912869,0.4792998532479902,,,681937,0.41835977801003277,0.0845817387093584,0.113768369092064
681938,0.42411987345383684,0.08875351825337145,0.4792988871232603,,,681938,0.4183774426710979,0.08458446197685306,0.1137694595422402
681939,0.42425292781872614,0.08877770422023334,0.47929663853282367,,,681939,0.4183998735707827,0.0845870196226251,0.11376921290266175
681940,0.4243880800287395,0.08880315678614065,0.47929294695716707,,,681940,0.4184195155600322,0.0845931863077843,0.1137676108230028
681941,0.4245272372765676,0.0888272076693008,0.47929225674526466,,,681941,0.41843778997674624,0.08459254590595311,0.1137691996878851
681942,0.42466317274205184,0.08885206622535906,0.47929110529298,,,681942,0.4184556310251376,0.08459548796345559,0.1137702892830396
681943,0.424803203113564,0.08887602052126455,0.4792859606359473,,,681943,0.41848257481086315,0.08460030070309055,0.113767306054358
681944,0.4249427523534606,0.08890479737767795,0.4792818399105985,,,681944,0.4184990280147912,0.08460541770977545,0.11376561219921755
681945,0.4250842863986154,0.0889350007646023,0.47928084853295977,,,681945,0.41852029142837877,0.0846114264204342,0.1137670462707734
681946,0.4252191969002723,0.0889644895411735,0.4792751284915466,,,681946,0.41852840718886386,0.08461641399726315,0.1137639158846803
681947,0.4253529964370615,0.08899562234045175,0.4792739463278344,,,681947,0.4185434446525613,0.0846154099324461,0.1137653107075598
681948,0.425480790269285,0.08903002649258225,0.4792718284841735,,,681948,0.4185618846213818,0.08462470124286485,0.11376554834206809
681949,0.425603323297146,0.08906315012799085,0.47926376120868025,,,681949,0.4185779382222547,0.08462622762135975,0.11375989439950504
681950,0.42572116481805733,0.08910024930058644,0.47926043530534834,,,681950,0.4185882174882125,0.08462547952141065,0.11375911319138846
681951,0.42583166967164626,0.08913880429490785,0.4792591059742899,,,681951,0.4186111489175502,0.084636373571982,0.11375984309286566
681952,0.4259356301964138,0.0891768338044464,0.47925521237498375,,,681952,0.418623358089685,0.08463871798340375,0.1137582149171777
681953,0.426032536973317,0.0892161433107447,0.4792558511142919,,,681953,0.4186390493228215,0.08464849402146395,0.11376085540358236
681954,0.42611971232765417,0.089255845778828,0.47925203981459163,,,681954,0.4186497722565457,0.08464886808963426,0.113759092247686
681955,0.4261986249873874,0.08929764694167999,0.4792523018657132,,,681955,0.4186630170027264,0.08465152951003979,0.1137611977682913
681956,0.42626905922305625,0.0893397914744041,0.47925141408816685,,,681956,0.418677829848909,0.0846563404824929,0.11376193750555035
681957,0.4263302512825356,0.0893874249295862,0.4792506762125692,,,681957,0.41868025295000144,0.08465889287077095,0.11376300545017459
681958,0.4263850558732032,0.08943419375220475,0.47924884423357084,,,681958,0.41868786015517545,0.08466677882405454,0.11376266952620814
681959,0.42643058968294606,0.0894851788700826,0.4792506938505011,,,681959,0.41869462213649494,0.0846767305330572,0.11376587528760915
681960,0.42646711656077974,0.0895409446794506,0.47924702738152214,,,681960,0.41870175746598487,0.084684404069533,0.1137634679965988
681961,0.4264990792785651,0.0895973918712846,0.47924814474320243,,,681961,0.4187101698222223,0.0846932995582402,0.11376572144858535
681962,0.42652052726818157,0.08965643535473004,0.4792481561751363,,,681962,0.41871294724739727,0.0847032920147874,0.1137667927179653
681963,0.42653411804592195,0.0897151361799378,0.47924551336067467,,,681963,0.41870881108416774,0.08470671241834296,0.11376528238830294
681964,0.42653783698141823,0.08976975559326246,0.47924391099833397,,,681964,0.4187122163308215,0.08471665732969375,0.11376430167845511
681965,0.42653338170019645,0.08982616034904195,0.47924342357989014,,,681965,0.41871083495983424,0.08472327107805974,0.11376444025414184
681966,0.4265226177939221,0.0898781721961613,0.47924417028328137,,,681966,0.41871423398005314,0.08473116412664469,0.11376550275344145
681967,0.4265106296349337,0.08994986320483915,0.4792366927324554,,,681967,0.41870500397970123,0.08473974866780726,0.1137588604582106
681968,0.42648433060593627,0.08999993243504721,0.479239200144042,,,681968,0.4187095869069076,0.08474288005202825,0.11376138176118
681969,0.4264490539710979,0.0900470997669917,0.47923429955298236,,,681969,0.4186957144591479,0.08475134008882154,0.11375658528700536
681970,0.4264097105417759,0.0900898126566346,0.4792347647028927,,,681970,0.41869062144412417,0.084752518426625,0.11375692963892545
681971,0.4263599059099827,0.09013325186209385,0.4792351896440987,,,681971,0.4186892788074521,0.08476066516778175,0.11375685135124505
681972,0.42630891610223187,0.09017267288851585,0.4792345906720523,,,681972,0.41867774521347934,0.0847646609992268,0.1137559488781556
681973,0.4262500345064632,0.09021077771998845,0.47923585257244733,,,681973,0.41866787452067133,0.0847709137508352,0.1137566634259426
681974,0.4261810649932337,0.0902464889152026,0.4792358022617771,,,681974,0.418662492346626,0.08477412115638586,0.11375578471538694
681975,0.4261051023919308,0.0902796780703758,0.47923654560854,,,681975,0.4186469115400898,0.08477576426365975,0.11375576459363446
681976,0.42602086790628113,0.09031133253966865,0.479236799221272,,,681976,0.4186427401693029,0.08478359460836235,0.1137547527214483
681977,0.4259284071797119,0.0903393885676181,0.47923822377314285,,,681977,0.41861833247356006,0.08478586994696641,0.11375520062711465
681978,0.42582812503333367,0.09036417341987125,0.4792430860008339,,,681978,0.41861966244318416,0.08479189684597985,0.11375833013527105
681979,0.42571062835339213,0.09041860255167336,0.4792520857579029,,,681979,0.41861009268059357,0.08478972215361115,0.1137660845651579
681980,0.4255985947666065,0.0904364854279453,0.4792537821594934,,,681980,0.41858633038155235,0.0847893620800311,0.1137663581414744
681981,0.42547773901256947,0.0904509476466494,0.4792574938830174,,,681981,0.41858173517275654,0.0847923957249005,0.1137680345405766
681982,0.42534719699944523,0.0904604853734214,0.47925967547566417,,,681982,0.4185601489151959,0.084794094924175,0.1137682980577853
681983,0.4252098085542996,0.09046716909262466,0.4792640703046106,,,681983,0.4185416258789339,0.0847963440896471,0.11377057371016615
681984,0.42506668534429926,0.090468865408106,0.47926832558426224,,,681984,0.4185191853743488,0.08479376940437085,0.11377271343723325
681985,0.42491792347906987,0.09047038435835925,0.47927294118467456,,,681985,0.4185051150498696,0.0847996440685902,0.1137748733897053
681986,0.4247623884063027,0.09046742760355911,0.479270848420376,,,681986,0.41848360766497855,0.08479892343053175,0.1137704189512955
681987,0.4246039843136743,0.0904646101984609,0.47927658394354444,,,681987,0.41846882288195847,0.08480129450461855,0.11377363509251501
681988,0.4244380204678939,0.09045709722696375,0.47927723146641504,,,681988,0.41843941490760417,0.08480074496147824,0.11377190814044716
681989,0.42426733553693047,0.0904457908389409,0.4792787744629652,,,681989,0.4184065024966791,0.0847997033834344,0.1137710573053672
681990,0.4240935381881802,0.0904371781156821,0.4792838622557718,,,681990,0.41838696068450326,0.08480125147804204,0.11377354738987185
681991,0.423916371164543,0.0904290333018041,0.47928522951100383,,,681991,0.4183530440723302,0.08479558709126665,0.11377266796940974
681992,0.4237314980349173,0.09042337769007175,0.4792879978137903,,,681992,0.41833769696662093,0.08480429101588499,0.11377267427150259
681993,0.4235390870892911,0.09041847980938145,0.4792874292165601,,,681993,0.41829592614579975,0.0848040848115301,0.11376984167614046
681994,0.4233412667935018,0.09041633436023945,0.4792881948359252,,,681994,0.4182672677532532,0.0848046716036622,0.11376817795027555
681995,0.42313962910847913,0.09041937320959616,0.4792919461530828,,,681995,0.41824185475733106,0.0848023387399441,0.1137696079856166
681996,0.4229295472338212,0.0904229661351889,0.4792962464452797,,,681996,0.418219466268408,0.08480857052136224,0.11377140095809496
681997,0.4227179865046914,0.0904281838678689,0.47930180258064276,,,681997,0.41819605706447427,0.08480503555211955,0.11377471558653715
681998,0.42249462678219574,0.09043213419830115,0.4793026349808525,,,681998,0.41816830057076204,0.08480671290723266,0.11377321549994404
681999,0.4222707088277806,0.09043884824824204,0.4793064711445383,,,681999,0.4181407425247507,0.08481264877719595,0.11377479231616716
682000,0.42204530959609166,0.09044729214590444,0.47930747705835314,,,682000,0.41810583199544465,0.0848146284037124,0.1137737951839724
682001,0.4218166677980679,0.0904551309745089,0.4793110954946267,,,682001,0.41807634377021063,0.08481638326324065,0.113775415335145
682002,0.4215796618641547,0.09046257877985814,0.47931430942033465,,,682002,0.4180507861806706,0.08481502383134575,0.1137766627562002
682003,0.4213410326070721,0.09047456183388924,0.4793189625767752,,,682003,0.4180220467020131,0.08481355252909345,0.11377955803131085
682004,0.4210997815927803,0.09048911779718385,0.47932090516892184,,,682004,0.41798017073646354,0.08482481051757465,0.11377979582499739
682005,0.4208592111952254,0.0905064518909752,0.4793195676377848,,,682005,0.41795173213468784,0.0848212018496326,0.11377703459037106
682006,0.42060585420912827,0.09052416982561641,0.4793173288166608,,,682006,0.41792120601349375,0.0848320893478287,0.11377319761888091
682007,0.4203609371551656,0.090543139286103,0.4793186752228904,,,682007,0.4178910083339781,0.08483037617445455,0.11377335278189946
682008,0.42011296605266385,0.09056880419474565,0.47932352400794553,,,682008,0.41785950920305015,0.08483307584243824,0.1137771626230521
682009,0.41986591318181377,0.09059478550926335,0.4793279363046531,,,682009,0.41782474206828246,0.08483622932363485,0.1137806868000483
682010,0.4196103843685493,0.09062347518419625,0.4793301614192814,,,682010,0.41779258268061537,0.08484292230211815,0.1137820800747879
682011,0.4193573461011034,0.09065650516619894,0.47933027442065584,,,682011,0.41776336517647816,0.08484843440632285,0.11378158476618616
682012,0.4191073658915333,0.0906905739709566,0.4793298436439814,,,682012,0.41772617090827413,0.0848507194558342,0.11378079444688666
682013,0.41885811582848775,0.090725477276349,0.47933422109710944,,,682013,0.4177005162046653,0.0848563042843915,0.11378486500310525
682014,0.4186093537949821,0.0907601320820598,0.47933214743033936,,,682014,0.417665671686295,0.08486256541360535,0.11378263349179145
682015,0.41836595702212936,0.09079142948350541,0.4793251084579849,,,682015,0.41762974216647253,0.08485940874197465,0.11377567529353874
682016,0.41812950926159265,0.09082855623497114,0.47932955227622803,,,682016,0.41760496950333414,0.08486750460838915,0.11378022634224841
