field.frameNumber,field.x_m,field.y_m,field.z_m,,,field.frameNumber,field.x_m,field.y_m,field.z_m
675305,0.5048130097430499,0.08723766205852135,0.47942421604915275,,,675305,0.5083164070178007,0.08576628197355785,0.1138456605820404
675306,0.5048153610889791,0.08716491555162185,0.4794248924242859,,,675306,0.5083155741137975,0.08575787952417185,0.11384605314657556
675307,0.5048161159256821,0.08709112142621225,0.47942688066293426,,,675307,0.5083256444748332,0.085751924636427,0.11384787589028525
675308,0.5048125000137864,0.087018928145331,0.47942500695159807,,,675308,0.508322318296891,0.0857401555051382,0.1138457886070731
675309,0.504805986370253,0.08694960128659904,0.47942418241987644,,,675309,0.5083130312470934,0.08573214373673195,0.11384472812493696
675310,0.5047964660351312,0.0868784725118286,0.4794268944843699,,,675310,0.5083143388757805,0.08572769711513259,0.1138473282393418
675311,0.5047792231622124,0.08680965589762794,0.47942503413965853,,,675311,0.5083044418875381,0.08571343009922505,0.11384537101385335
675312,0.5047564711402983,0.0867389874569684,0.4794247675707885,,,675312,0.5083004451306744,0.08570589660201519,0.11384510191516081
675313,0.5047298641182572,0.0866700633695169,0.47942692677417204,,,675313,0.5083009048546074,0.08569619007338425,0.1138473619622121
675314,0.5046930053615231,0.086601818322842,0.4794296567629693,,,675314,0.5082991411194713,0.08568826074581584,0.1138502807491023
675315,0.5046511308722018,0.08653426994800135,0.47943157747781495,,,675315,0.5082986082167913,0.08568068126556595,0.11385246666235604
675316,0.504602917476056,0.08646892953887295,0.47943230791525937,,,675316,0.508291966299086,0.08567275903221461,0.1138534846766243
675317,0.504548196375306,0.0864048378293062,0.47942891754810935,,,675317,0.5082835412395574,0.08565977343621095,0.11385045668500696
675318,0.5044880955982118,0.08634543361248369,0.4794265734870592,,,675318,0.5082729056561386,0.08565537046937399,0.11384851343021785
675319,0.5044286454273672,0.0862863324501406,0.47942356399794694,,,675319,0.5082687630322884,0.08565036987486374,0.11384598260430785
675320,0.5043647336778422,0.08623194801017965,0.4794217996508513,,,675320,0.5082678440539841,0.0856458118501679,0.11384480209351991
675321,0.5043017491467683,0.0861813248339579,0.47941777138259023,,,675321,0.5082442856466115,0.08563724505768999,0.11384113187674849
675322,0.5042413075739243,0.08612871255180675,0.47941919117082354,,,675322,0.5082374591119588,0.0856286206595255,0.11384307098485745
675323,0.5041835365568718,0.08608084516158096,0.47942057614477285,,,675323,0.5082340532397649,0.0856209993706947,0.1138450014332095
675324,0.5041262237836536,0.0860337210823785,0.4794188218314725,,,675324,0.5082325494392878,0.0856191745567885,0.1138438155604917
675325,0.5040718324393096,0.08598458428266405,0.47941819665483665,,,675325,0.5082179552011776,0.08560752438649835,0.113843598985472
675326,0.5040209937545304,0.0859370008666603,0.47941705602595563,,,675326,0.5082073230922335,0.08560522986282815,0.1138428726596833
675327,0.5039746162486298,0.0858860536169065,0.4794188043228085,,,675327,0.5082087651123328,0.08559856692180079,0.11384513417677655
675328,0.5039336674023147,0.08583232364992295,0.4794207897826014,,,675328,0.5082048660380092,0.0855967636902159,0.11384751348500399
675329,0.50390135366676,0.085777645495339,0.4794196580960522,,,675329,0.5082007503301883,0.0855894380891529,0.11384668489433655
675330,0.503873467517281,0.0857201616870717,0.47941743516328084,,,675330,0.5081937132300138,0.08558410217722864,0.11384468462786285
675331,0.503855193498516,0.08565957557826505,0.4794165429028109,,,675331,0.5081932757957898,0.0855726777936833,0.11384398859929555
675332,0.5038472301631334,0.08559336647812545,0.479416818206232,,,675332,0.5081950549601331,0.08556512562219015,0.1138443704052136
675333,0.5038472069649917,0.08552269333190275,0.47941702012229886,,,675333,0.5081891355076904,0.0855533969196859,0.11384450244207264
675334,0.5038520532918347,0.0854488549566868,0.4794207672252915,,,675334,0.5081944136124682,0.0855466341071026,0.1138482664606372
675335,0.5038634802441173,0.08537325005617745,0.4794221744348923,,,675335,0.5081919447761618,0.0855376301950447,0.11384953275720275
675336,0.5038812899080343,0.0852924199383476,0.47942379148351466,,,675336,0.5081991798778618,0.08552782330523184,0.11385106358836256
675337,0.5039053089205476,0.085211351865752,0.4794270759664103,,,675337,0.5081978969837329,0.0855202319308635,0.11385410479640605
675338,0.503927141436052,0.08512953400664594,0.4794271406390793,,,675338,0.5082094944238966,0.08550971814959725,0.1138541166313654
675339,0.5039549442102027,0.08504354924188025,0.4794258847819109,,,675339,0.5082083719700972,0.085499745408869,0.11385261003854535
675340,0.5039857176523439,0.0849583198236731,0.4794250748732857,,,675340,0.508212349799869,0.08549053650527816,0.1138515921159433
675341,0.5040215854384651,0.08487130583249444,0.47942537654130357,,,675341,0.5082173060093682,0.0854766023009507,0.11385165139914336
675342,0.5040617956656226,0.0847847928588387,0.4794234345988067,,,675342,0.5082216334752991,0.0854688939010475,0.1138494383622023
675343,0.5041080013452552,0.08469938439473886,0.4794232526699504,,,675343,0.5082350063504194,0.08545954603615785,0.113849034551104
675344,0.5041601920216575,0.08461644136928351,0.47942685985252775,,,675344,0.5082355480968256,0.08544859405492165,0.11385221909635045
675345,0.5042045921814489,0.0845317846660924,0.4794242586377988,,,675345,0.5082421531852093,0.08543969967463455,0.11384937881053586
675346,0.5042664031238708,0.0844573794256183,0.479429738464915,,,675346,0.5082522411581982,0.08542815492175154,0.11385445256700345
675347,0.5043144355916206,0.0843768512849,0.4794288332689603,,,675347,0.5082672799643048,0.08542133058703155,0.11385339228093064
675348,0.504374785381956,0.08430459429062175,0.4794285215019356,,,675348,0.508262399688984,0.08540376123487994,0.11385254136064124
675349,0.5044349990961676,0.08423425780605345,0.47942722392043075,,,675349,0.5082765860554932,0.0853978171492792,0.1138509564897777
675350,0.5045047494024408,0.0841666023328357,0.4794292208645538,,,675350,0.5082874004318768,0.08538833597907265,0.11385252865438736
675351,0.5045735203312132,0.08410077553796885,0.47942863015280646,,,675351,0.5082937520735726,0.08538620948387221,0.1138515158464081
675352,0.5046461282438256,0.08403630595618951,0.4794283407696952,,,675352,0.5083050622307497,0.0853768261563804,0.11385080565995709
675353,0.5047210178460908,0.0839728481807634,0.47942844268639917,,,675353,0.5083105521420468,0.08537284455318185,0.1138504424963783
675354,0.5048014291130889,0.0839079492976067,0.4794294290527015,,,675354,0.5083184004270551,0.0853591328069695,0.11385092319050161
675355,0.5048840022618197,0.08384323775961326,0.4794302719751705,,,675355,0.5083259564101175,0.08534907570904765,0.11385127316239575
675356,0.5049718685136053,0.08377663022157024,0.47943295698086397,,,675356,0.5083433876420509,0.0853382767573809,0.11385353594064275
675357,0.5050591616388884,0.08370431928419445,0.47943511241918224,,,675357,0.5083516413658686,0.08533154147720755,0.1138552569916415
675358,0.5051524598981332,0.08363152797857845,0.4794381983199091,,,675358,0.5083592587213341,0.0853199908014069,0.11385785899099629
675359,0.5052437300403954,0.08355143296731299,0.47944324382407133,,,675359,0.5083699568762221,0.0853075375586906,0.11386252527935005
675360,0.5053636143158899,0.0835002917064756,0.4794483707395632,,,675360,0.5082865799058023,0.08527556266696454,0.11386606310636205
675361,0.5054570805899607,0.08340981475183246,0.47945065863290304,,,675361,0.5082943065487073,0.085256743283675,0.11386803052662005
675362,0.5055438454565392,0.08331753556127044,0.4794512741567386,,,675362,0.5083056789411282,0.0852401980777323,0.1138684591696406
675363,0.5056308179972915,0.08321994581224935,0.47944727941589227,,,675363,0.5083000328162848,0.0852226334082385,0.1138642060879789
675364,0.5057120900447932,0.0831215877316583,0.47944508836556915,,,675364,0.5082999663158305,0.08520823147721265,0.1138618997702447
675365,0.5057918102124952,0.0830190391829391,0.4794491487858863,,,675365,0.5083169760307309,0.0851877232788638,0.1138659991247975
675366,0.5058687137187039,0.0829153996115371,0.47945053093322143,,,675366,0.5083239492701925,0.08517401031536359,0.11386744945198705
675367,0.5059425969431683,0.08280991701965379,0.47945464545361505,,,675367,0.5083292727645923,0.08516019992873375,0.11387168781197354
675368,0.5060067742658876,0.08270357458400344,0.4794534899664298,,,675368,0.5083444573044622,0.08514187185173736,0.11387079218973681
675369,0.5060663873280786,0.08259906106543785,0.4794524462326266,,,675369,0.5083415995742941,0.0851303526603859,0.11386998639444515
675370,0.5061178512878589,0.08249647870861175,0.47945545044103205,,,675370,0.5083567747514939,0.08511137703962404,0.11387335501282045
675371,0.5061634706606709,0.0823944889870371,0.47945449389973954,,,675371,0.5083548399157048,0.0851025999505363,0.1138727889348479
675372,0.5062068840441243,0.08229485535160666,0.4794536030716276,,,675372,0.5083607260707316,0.0850930630564658,0.1138723535970347
675373,0.5062470941294214,0.08219812668463461,0.47945192940909714,,,675373,0.5083677936380788,0.08508064606634186,0.1138711412310972
675374,0.5062861636889571,0.0821052412483294,0.4794558758119638,,,675374,0.5083805199222444,0.08506944478664635,0.11387558895476596
675375,0.5063228130708675,0.0820155824568698,0.47945449316164784,,,675375,0.5083846011924544,0.08505573751908235,0.1138746448984005
675376,0.5063578468070549,0.08193095523727949,0.4794526818311565,,,675376,0.5083831083075558,0.08504470307958555,0.11387324879441045
675377,0.5063904268824595,0.0818479621397355,0.47945323045617716,,,675377,0.5083813554037352,0.08503184062579265,0.1138742128817973
675378,0.5064174334978415,0.08176896041410266,0.4794581366157096,,,675378,0.5083934943366865,0.08502422950103894,0.11387966709654815
675379,0.5064387183566679,0.08169335792642025,0.4794597630166774,,,675379,0.5083870859120304,0.08501361721370479,0.1138817293338889
675380,0.506449773288874,0.08161937658541266,0.47945924202825096,,,675380,0.5083978787685207,0.0850059309817348,0.1138818150670115
675381,0.5064536084850115,0.0815511534598867,0.47945688380159185,,,675381,0.5083917921079022,0.0849964118832485,0.11387995262584075
675382,0.5064543145427356,0.08148543851825654,0.4794585371287938,,,675382,0.5083900319896515,0.08498564637537095,0.1138821148691489
675383,0.5064473172815347,0.08142545860858935,0.47945817698623083,,,675383,0.5083925358421018,0.0849806281892875,0.11388233552068261
675384,0.5064335839646967,0.08136913782068984,0.4794552048229367,,,675384,0.508381402103913,0.08497195318093835,0.11387984365206111
675385,0.5064136198036995,0.081318066818725,0.4794556775964033,,,675385,0.5083819541918124,0.08496989321580245,0.113880912612629
675386,0.5063894444494795,0.08127166433822645,0.4794573243380589,,,675386,0.5083773304216823,0.084961116061602,0.11388304293333254
675387,0.5063552312755573,0.08123044984654915,0.4794562193349978,,,675387,0.5083757606698545,0.0849573226692869,0.11388249647028
675388,0.5063157983099333,0.08119409167510694,0.4794569684343934,,,675388,0.5083691928184,0.08495434468384325,0.11388377051427455
675389,0.5062683428295818,0.08116296184026335,0.4794555988062503,,,675389,0.508363608638417,0.0849495251894791,0.11388291004458655
675390,0.5062124956389867,0.08113607246279166,0.4794553088104685,,,675390,0.5083613746803718,0.08494645988068085,0.113883178806237
675391,0.5061538582731581,0.08111587093626994,0.4794581557088639,,,675391,0.5083556996389255,0.08494609160726226,0.1138865481222639
675392,0.5060865265655016,0.0811007649684148,0.4794552555045639,,,675392,0.5083447075689491,0.0849422528866095,0.11388410981829715
675393,0.5060171399900857,0.08109139993689625,0.47944995531002677,,,675393,0.5083281071183425,0.08494218030504155,0.11387923726668031
675394,0.5059440505149004,0.0810881151349014,0.4794513684494016,,,675394,0.5083279418465145,0.08494295896926651,0.11388116149816326
675395,0.5058706921173247,0.0810885405507602,0.47944738695541056,,,675395,0.5083238517169341,0.0849364303831246,0.11387756500472429
675396,0.5057937837603979,0.0810940978475769,0.47944784117161227,,,675396,0.5083037663123973,0.08493559276242754,0.11387833769293385
675397,0.5057198662638174,0.0811051114213804,0.4794492576129661,,,675397,0.5082962558455902,0.0849376792073947,0.1138801224139889
675398,0.505642605783616,0.0811200067636681,0.47945078134946595,,,675398,0.5082886444128312,0.08494408398670106,0.11388205472996335
675399,0.5055683762884754,0.0811387091388563,0.4794502026962736,,,675399,0.5082828444267627,0.0849417813468688,0.11388175866185415
675400,0.5054917304736031,0.08115718693931145,0.47944754601531586,,,675400,0.5082675645319313,0.0849434033723651,0.11387938782912704
675401,0.5054177414430326,0.08117655677520094,0.4794456007951601,,,675401,0.5082572327587545,0.0849457674528455,0.11387775577979894
675402,0.5053416964272254,0.08119464899753154,0.4794469671845729,,,675402,0.5082544596073559,0.0849518953771769,0.1138795754774641
675403,0.5052681110437455,0.08121381738753769,0.47944435895045484,,,675403,0.5082401455199426,0.0849541165360296,0.11387727052126966
675404,0.5052014208378308,0.08123049084150641,0.4794467911997006,,,675404,0.5082384561806343,0.08495953835360925,0.11388012205408685
675405,0.5051361931905174,0.0812425139965115,0.47944550609518644,,,675405,0.5082298812996816,0.0849616127741366,0.1138792106474181
675406,0.5050757932585572,0.0812532880571509,0.4794476576573508,,,675406,0.5082237087526821,0.08496110354089789,0.11388171052657675
675407,0.5050195553589136,0.0812603225995146,0.4794437706246941,,,675407,0.5082114929774115,0.0849590763207969,0.11387811342425569
675408,0.5049724343461315,0.08126367036975875,0.47945174358862935,,,675408,0.5082227675830916,0.08496819361661305,0.1138866593551898
675409,0.5049274983881202,0.0812603663404985,0.4794511917679467,,,675409,0.5082121950121494,0.0849639465840783,0.1138864051285509
675410,0.504890684560783,0.0812547949306239,0.4794510232761924,,,675410,0.5082045061753456,0.08496714007453901,0.11388658839626745
675411,0.5048585000319163,0.0812468358646702,0.47945123263752826,,,675411,0.508213420980632,0.0849682295506256,0.1138872646323356
675412,0.5048338890288762,0.08123411342034176,0.47945080775557003,,,675412,0.5082231930665457,0.0849765587452546,0.11388737182362425
675413,0.5048176304587301,0.0812205970599334,0.47944797195338235,,,675413,0.5082183422532351,0.0849700273467062,0.11388471354103186
675414,0.5048071837188794,0.0812026592146384,0.4794467147455095,,,675414,0.5082282636631825,0.08497576926072026,0.11388389001926036
675415,0.5048086593848844,0.0811800451891902,0.4794463440170197,,,675415,0.5082283870056377,0.08497769946763215,0.1138837607919023
675416,0.5048132086974793,0.081156923704911,0.4794484953198676,,,675416,0.508250960495892,0.08497967187526365,0.11388634269977191
675417,0.5048291233000427,0.08113384093914175,0.47943197895801576,,,675417,0.5081692478351754,0.0849355678744098,0.11386870206926841
675418,0.504853652873595,0.081107986883121,0.4794319443543294,,,675418,0.5081880064774384,0.08493501340441045,0.11386887876469745
675419,0.5048871281467842,0.08108355960128245,0.4794305710719186,,,675419,0.5082002354175905,0.0849265574057542,0.1138674798587512
675420,0.5049222902194688,0.08106024563833099,0.4794276879313963,,,675420,0.5081922576937197,0.08492610008530604,0.1138644492826615
675421,0.504962331602435,0.08103951551357776,0.47942594486533546,,,675421,0.5081998776642459,0.08492223061750885,0.11386259633575575
675422,0.505006993800303,0.0810263847194026,0.47942766932748426,,,675422,0.5082126405573579,0.08491862024697899,0.1138641409213994
675423,0.5050533689630616,0.08101459606889169,0.4794256902800438,,,675423,0.5082178427937323,0.08491502675489675,0.11386189049253989
675424,0.5051037954934888,0.08101108227725409,0.4794236629139089,,,675424,0.508220854062281,0.0849151280962791,0.1138594943451591
675425,0.5051571671258553,0.0810078116765767,0.47942512149582606,,,675425,0.5082322830512747,0.08491487066768065,0.11386062989232676
675426,0.5052446994007651,0.08104881846214895,0.4794436399153021,,,675426,0.50823692960865,0.0849400050247256,0.1138782911816484
675427,0.5053063982139023,0.0810612850784101,0.4794445939213503,,,675427,0.5082439033280655,0.0849350882788187,0.11387861672748124
675428,0.5053735839535717,0.0810785203127795,0.47944802154212696,,,675428,0.5082531248939534,0.0849384443604553,0.1138814363629581
675429,0.5054407905609265,0.08109950294160466,0.4794488572537567,,,675429,0.5082635077552067,0.0849423445958318,0.11388164892551896
675430,0.5055101252014393,0.0811235793762943,0.47945342653990597,,,675430,0.5082860529687009,0.0849514954138322,0.1138857033297186
675431,0.5055789370237951,0.08114914658498669,0.4794541243710233,,,675431,0.5082998582555498,0.0849556420976529,0.11388576393921265
675432,0.505652122530655,0.08117534348696305,0.47945858189103674,,,675432,0.5083238622494162,0.08496592228739325,0.11388969332354304
675433,0.5057262671873811,0.0812022741425904,0.47945810166483926,,,675433,0.5083463555971669,0.08497368723985135,0.11388864102949789
675434,0.5058018755949565,0.08123069365504615,0.47945787178522875,,,675434,0.508352851367958,0.0849790987704943,0.11388768570472295
675435,0.5058811561691176,0.08125893786058595,0.47944993266956704,,,675435,0.5083119756568599,0.0849595857286664,0.1138784413149839
675436,0.505962958163908,0.08128683854977005,0.47944891722381294,,,675436,0.5083211268065337,0.0849590328366041,0.11387666308106174
675437,0.5060495099798583,0.08131528177891086,0.4794530649559121,,,675437,0.5083394676973882,0.08496999422674714,0.11388020198627774
675438,0.5061373619516272,0.08133932026693515,0.4794520817053646,,,675438,0.5083510684998416,0.08497142831870044,0.11387852376707724
675439,0.5062278829872562,0.08136179945622835,0.4794525367654417,,,675439,0.5083570282538046,0.08497265524150935,0.1138782660212173
675440,0.5063203868009305,0.08138345649650094,0.47945328472981597,,,675440,0.5083728225981198,0.0849757157350392,0.1138783920606104
675441,0.506416059285409,0.08140364707520854,0.4794601589332508,,,675441,0.5083875356881637,0.08498070741492286,0.11388467166781746
675442,0.5065103500672103,0.0814211027032129,0.4794569742356771,,,675442,0.5083963812380324,0.0849787473784619,0.11388084670540895
675443,0.5066068890983035,0.08143561124929964,0.479457141352948,,,675443,0.508405041862524,0.08498223396422411,0.11388046391961645
675444,0.5066999257078618,0.08145053426305676,0.47945917242540126,,,675444,0.5084203446345614,0.08498257225660336,0.11388197970740854
675445,0.5067945898324717,0.08145898237316924,0.4794598674852266,,,675445,0.508431730134474,0.0849837316032298,0.11388222199286835
675446,0.5068880065298829,0.0814677452831062,0.4794602276260757,,,675446,0.5084430696630482,0.08498762649527385,0.1138821768843172
675447,0.5069830424868476,0.08147312112815965,0.4794618018543604,,,675447,0.5084611534132004,0.0849894399111351,0.1138833975967436
675448,0.5070776941056392,0.08147499322893904,0.47946282362095805,,,675448,0.508464278727234,0.0849844952625153,0.1138839952572205
675449,0.5071727464800133,0.0814738833561791,0.479464351389718,,,675449,0.5084799643998199,0.0849888772508286,0.11388528337778936
675450,0.5072690679359373,0.08147118727192715,0.47946640069114393,,,675450,0.5084911618317473,0.08498983890245895,0.11388707339479309
675451,0.5073636893167557,0.08146890062825361,0.47946892859831575,,,675451,0.5085089842346593,0.0849908880211766,0.1138893847592291
675452,0.5074594273776845,0.08146292295608384,0.4794678019524668,,,675452,0.5085230582628394,0.08498755651999321,0.11388803689862814
675453,0.5075535086916021,0.08145808667308499,0.4794684142986446,,,675453,0.5085356881240914,0.08498825945932334,0.113888474787597
675454,0.5076465987859884,0.08145186061614951,0.4794662876385361,,,675454,0.5085451266982519,0.0849857867591248,0.1138861692200881
675455,0.507738286037892,0.08144630043805559,0.47946557183515526,,,675455,0.5085619479774381,0.08498675772029905,0.1138853402682917
