field.frameNumber,field.x_m,field.y_m,field.z_m,,,field.frameNumber,field.x_m,field.y_m,field.z_m
711905,0.09778763191790729,0.0936290741142811,0.4785051220908787,,,711905,0.08283766011475505,0.08493953336708315,0.1133159804205281
711906,0.0976611948717317,0.09370502322870766,0.4785099625998329,,,711906,0.08282072948199175,0.08495209546620425,0.11331786820040604
711907,0.09754276275590615,0.09378121162730946,0.47851291233412085,,,711907,0.08281360640562854,0.08496236570719184,0.11331789747344964
711908,0.09743259495105974,0.0938512029432231,0.47851334838471626,,,711908,0.0827892938486476,0.08497215369549416,0.1133163396531002
711909,0.09732935190582839,0.0939153016466168,0.4785164702025654,,,711909,0.0827772863839511,0.0849805758191517,0.11331717251337935
711910,0.09723767830301565,0.09397503197921474,0.47852419652433953,,,711910,0.08277124435505051,0.08498781025742055,0.11332278482965266
711911,0.09715181566375031,0.09402865585864435,0.4785257825454919,,,711911,0.0827632181907505,0.0849951459610066,0.113322437912767
711912,0.09707692844457341,0.09407804670451085,0.47852620946792884,,,711912,0.08275016840140495,0.08499762941260294,0.11332159704126475
711913,0.0970160247687189,0.09412501362895995,0.47852466986049524,,,711913,0.08273247592852201,0.08500337411019826,0.11331939211350114
711914,0.09697076237795395,0.0941659145585945,0.4785296368925933,,,711914,0.08272984393900475,0.08501191275574449,0.1133235040549201
711915,0.09693952894455124,0.09420075608409341,0.47852903430690563,,,711915,0.0827263361471414,0.0850126704453467,0.1133226772948209
711916,0.0969185213853141,0.09423226106268336,0.478531585292924,,,711916,0.082719767454667,0.08501905183503669,0.11332529956965755
711917,0.09691025006909615,0.09425786173736515,0.4785287418325683,,,711917,0.08272769664918905,0.08501762396576085,0.11332250947384295
711918,0.09690877226431414,0.09428260111343055,0.4785254981462586,,,711918,0.0827227929877338,0.0850228443082919,0.11331989322607994
711919,0.09691827008641174,0.09430379189489475,0.47851962216191146,,,711919,0.08272447157090154,0.08502634108632154,0.11331477011386551
711920,0.09694344632018714,0.09432184077900485,0.4785185130292967,,,711920,0.08272742418828741,0.08503826830275175,0.1133146809490965
711921,0.0969808879759991,0.09433413437845535,0.4785146529831923,,,711921,0.08273306261423685,0.0850321386719209,0.11331252906059536
711922,0.09703028234256031,0.09434120824022345,0.4785161846800163,,,711922,0.08274328094345826,0.08503167912967105,0.11331578321802249
711923,0.09709000485439725,0.0943411450880293,0.4785161381453087,,,711923,0.08274421048503225,0.0850311899740134,0.11331805232211259
711924,0.0971623039513449,0.09433236402939696,0.4785121817147707,,,711924,0.0827583728435798,0.08503220298934465,0.1133161347173923
711925,0.09724249274397789,0.0943122804773463,0.4785084900753463,,,711925,0.08277188379249589,0.085032650562202,0.11331455678174565
711926,0.09733525800090845,0.09428533318373025,0.4785096882012009,,,711926,0.0827888453307963,0.0850376757269588,0.11331795543711895
711927,0.097437982123445,0.09425577616458215,0.4785069557391467,,,711927,0.0828045995078306,0.0850261777384024,0.11331824069532706
711928,0.09754696558536691,0.09422465325928535,0.47850373433870436,,,711928,0.08281275566959995,0.0850222481655319,0.11331838719579371
711929,0.0976610795337702,0.09419072528461245,0.4785013912933316,,,711929,0.0828293769531191,0.0850216046039735,0.11331915350821889
711930,0.097787329617211,0.0941578258833176,0.4784943708176963,,,711930,0.0828370597798065,0.0850198740635259,0.113316186587631
711931,0.09792206548305729,0.0941241651697728,0.4784910409846713,,,711931,0.08285929706143785,0.0850038951125288,0.11331703773307175
711932,0.098063361565212,0.09409451529118615,0.4784865700727961,,,711932,0.0828783427294023,0.0850045853962422,0.11331687342930319
711933,0.09820804082451196,0.09406887999619196,0.4784780898975207,,,711933,0.08288990022174644,0.08499746534108815,0.11331349279935099
711934,0.0983569413646288,0.09404117309288515,0.4784709480843632,,,711934,0.08291306039721236,0.08500067018859975,0.11331088069316894
711935,0.09852029035929374,0.09401746750426185,0.478464749751752,,,711935,0.0829447494269111,0.08500290892786741,0.1133096330854564
711936,0.09868735583916194,0.09399289602448255,0.478454435855065,,,711936,0.0829592832958789,0.08499239907765326,0.11330551040406095
711937,0.09885460672912105,0.09397199306238825,0.47844997773094394,,,711937,0.08298435854423786,0.08499440737762201,0.11330663992089625
711938,0.09902200835368374,0.09395322724198155,0.478443443111777,,,711938,0.0829999991376532,0.08498950955808846,0.11330639219088715
711939,0.0991945740961187,0.0939346676275851,0.47843846432016834,,,711939,0.08303263790628605,0.08499199666532345,0.11330706410389535
711940,0.09936600931879144,0.09391248326286596,0.47843175895890755,,,711940,0.0830507819182689,0.08498654622163596,0.1133067667000307
711941,0.09953319700664254,0.09389109991911256,0.47842285930151196,,,711941,0.0830730734340879,0.08497589637047835,0.1133041081438889
711942,0.09969149118235904,0.0938713030850125,0.47841601661531996,,,711942,0.08309439283802425,0.0849739148619328,0.11330303166600894
711943,0.0998469534310953,0.09385096615324726,0.4784100576359265,,,711943,0.08311246113950116,0.08497039583646045,0.11330293471467914
711944,0.10000315129875825,0.0938337294903375,0.47840592821207195,,,711944,0.08313095001884245,0.08496909189825055,0.11330475594119235
711945,0.1001589855644995,0.0938152669271699,0.47840255758337474,,,711945,0.08315773694300499,0.08496028717940715,0.11330713738720685
711946,0.10030688038630739,0.0937991972036098,0.4783927632307542,,,711946,0.0831776983637123,0.08496258912289109,0.11330287779142259
711947,0.1004454352860224,0.0937813994666945,0.4783892185903301,,,711947,0.08319475042565246,0.0849593563018606,0.11330470180622215
711948,0.10057290230741105,0.09376359850587379,0.4783853336874238,,,711948,0.08321123783906559,0.0849597696678791,0.11330563804013155
711949,0.10068955238471294,0.0937392205686052,0.4783782607067646,,,711949,0.0832215164798397,0.0849543480196317,0.1133031825308312
711950,0.10079574885483544,0.09371301601863401,0.4783748661991939,,,711950,0.0832445130504545,0.08495850855002335,0.11330304903172106
711951,0.1008908114835052,0.09368758131587356,0.478366746025605,,,711951,0.0832583195907414,0.0849504147720544,0.11329842896744566
711952,0.10097320289991485,0.09366187493480305,0.4783625793792303,,,711952,0.08326800884945079,0.08494834938422896,0.11329721599158371
711953,0.10104390719748946,0.0936379535931136,0.47835948858126986,,,711953,0.0832723634960207,0.08494300252498635,0.11329690623458605
711954,0.1011085595589245,0.0936128625244278,0.47835399076949137,,,711954,0.0832828100395557,0.08493552930668875,0.1132936320457035
711955,0.101161079423737,0.09358769514412865,0.47835303824241415,,,711955,0.08328900493230584,0.08492740097476355,0.1132945398787789
711956,0.10120357770732574,0.09356096960549096,0.47835365050520673,,,711956,0.08329718616061094,0.0849293235061066,0.11329615531214775
711957,0.10123270634356825,0.09353266174067404,0.47835525706261306,,,711957,0.08330922971721186,0.08492669937675795,0.11329799392893035
711958,0.10124529759537701,0.09350297028031195,0.4783532891490741,,,711958,0.08330019245659845,0.0849226934008282,0.11329648395367835
711959,0.10124593009994681,0.0934733963840778,0.4783544093452392,,,711959,0.083310203454164,0.0849222022514078,0.11329646085235576
711960,0.10123629209913235,0.09344253026462006,0.47835556320146366,,,711960,0.08331120825809721,0.0849175459700115,0.1132964789680917
711961,0.10121101898566225,0.09341381084240315,0.47835805937904824,,,711961,0.08329677099128255,0.08490885692403399,0.1132979760408642
711962,0.10117312500106206,0.09338739200779915,0.47836079774350043,,,711962,0.08329612268283125,0.0849015032628501,0.11329844491927145
711963,0.10112592242423415,0.09336602770194385,0.47836661848022877,,,711963,0.08329689400441935,0.08490344840334124,0.11330137846625554
711964,0.10107137124271315,0.09335032114509931,0.47836975571932994,,,711964,0.0832890263223659,0.08490751433819405,0.11330178096449785
711965,0.10100920212248901,0.09333987959848546,0.47836892488269595,,,711965,0.08327426816588095,0.08489752623661564,0.11329863335446475
711966,0.10093974173375139,0.0933379568924558,0.478373226658356,,,711966,0.08326769684995755,0.0849019110276994,0.1132997396327539
711967,0.1008710427901092,0.09334025263921066,0.4783806909401176,,,711967,0.08326009397933595,0.08490608517034615,0.1133042081720118
711968,0.1007923112769948,0.09334986431987324,0.4783839339976578,,,711968,0.0832467934380346,0.0849025086188023,0.1133046056939836
711969,0.1007166022416999,0.09336559205822105,0.4783869037256612,,,711969,0.0832397724815015,0.08490678100470395,0.11330454602217871
711970,0.10063794417334,0.0933900146108225,0.47838712041585413,,,711970,0.08322280240589125,0.08491132462219055,0.11330227599946929
711971,0.1005605813819607,0.09341966842796244,0.47838688628192644,,,711971,0.08320354288105715,0.08491466396770556,0.1132998869477284
711972,0.10048361831203864,0.0934525629286394,0.4783913266968479,,,711972,0.08320036910467325,0.084922322567678,0.113301415489403
711973,0.1004123630006344,0.09349120802115725,0.4783962307443501,,,711973,0.0831929507017988,0.08492891302193845,0.11330405346076519
711974,0.10034065802902664,0.09353578314826015,0.4783963049600592,,,711974,0.08317645931053144,0.08493257563941481,0.11330248952058705
711975,0.1002754176872113,0.0935847000605571,0.4783959711199053,,,711975,0.0831664266404342,0.08494100196140845,0.11330052075415281
711976,0.10021829649692254,0.0936399314185451,0.47839665923979985,,,711976,0.0831603033242734,0.08495216711109965,0.11329986852602245
711977,0.10016907022356294,0.0936971393436839,0.4783979662886654,,,711977,0.0831572817166092,0.08496261393744994,0.11330013544470915
711978,0.1001227114309443,0.0937612861084318,0.47840034213278204,,,711978,0.0831481110794609,0.0849618354274026,0.1133023394268523
711979,0.1000806903824147,0.0938298934715086,0.4784076607532517,,,711979,0.08314563151084145,0.0849737991586258,0.11330919137303465
711980,0.10004382016359965,0.09390055717077765,0.4784043760651195,,,711980,0.08313904315833205,0.08498013321282545,0.11330606941326415
711981,0.10001423381492211,0.09397216607041105,0.4784062275749583,,,711981,0.08313756206896114,0.0849907935232453,0.11330811491592566
711982,0.0999909633395073,0.09404868587542631,0.4784099624552211,,,711982,0.08314409585844525,0.0850072028042243,0.11331195697013449
711983,0.0999713645941041,0.0941259653454357,0.4784050523528336,,,711983,0.0831276924997572,0.08501705126479961,0.11330857556363025
711984,0.09995797850233976,0.0942038887292931,0.4784047607238714,,,711984,0.08312777131803109,0.0850263744868333,0.11330938095619715
711985,0.09994675654621099,0.09428159360608154,0.4784011218770884,,,711985,0.08313109637493735,0.08503713959718034,0.1133067606328737
711986,0.09994134290672435,0.09435828213357414,0.4783956493448528,,,711986,0.0831229061501493,0.08504311970752046,0.1133032132368435
711987,0.0999470383986929,0.09443609055042965,0.47839801504026225,,,711987,0.0831362195071498,0.08505439533384451,0.1133069317031061
711988,0.09995881755942479,0.09451148373462204,0.47839773348204817,,,711988,0.0831341899506345,0.08506918898930971,0.11330884848962916
711989,0.09997062993388545,0.09458328285798465,0.47839210722935877,,,711989,0.0831347106428473,0.08507640395145924,0.11330541883286045
711990,0.09998809587212375,0.0946518154924314,0.478390561234989,,,711990,0.0831436072922157,0.08508927700511834,0.11330572173682575
711991,0.10000711852420141,0.09471480278666125,0.4783844462020021,,,711991,0.08314187412603591,0.08509656859171025,0.11330202801180655
711992,0.10003104043300715,0.09477363472016899,0.47838280001505035,,,711992,0.0831394126770624,0.08510413890240065,0.11330295569106635
711993,0.10005385804356005,0.0948306303292961,0.4783800710187295,,,711993,0.08314012901105056,0.0851072671259401,0.1133026806650263
711994,0.10008174857408295,0.0948810389694482,0.47837618955081085,,,711994,0.0831408143119966,0.0851136216539511,0.11330123659655485
711995,0.10011465649443295,0.0949282541638846,0.47837546692433003,,,711995,0.08314633340541475,0.0851252834024427,0.11330273890286216
711996,0.1001459326445821,0.09497083572651174,0.47837308617637364,,,711996,0.0831468493682988,0.08513234734846126,0.1133027446208858
711997,0.1001809189161023,0.0950097480446369,0.4783728136701177,,,711997,0.0831532902613885,0.08513755955851465,0.11330471217927096
711998,0.10021699994866726,0.09504454177360025,0.4783714413936945,,,711998,0.0831647362032563,0.0851440574848854,0.11330525605020694
711999,0.1002486886532008,0.0950728665950635,0.47836915273910624,,,711999,0.0831680342635521,0.0851473713041693,0.1133049737813627
712000,0.10028280073726856,0.09509386171029265,0.4783641211746603,,,712000,0.0831668974716802,0.08514767056063535,0.11330215642585609
712001,0.1003162481542989,0.09510655607487481,0.47836171977603015,,,712001,0.0831736775543842,0.0851504571526977,0.11330127637423071
712002,0.1003509645900518,0.0951137530291906,0.47835848286418126,,,712002,0.083178193341087,0.08514641411508655,0.1132997655982573
712003,0.10038028116251094,0.09511371772730885,0.4783542014009368,,,712003,0.08318514046403319,0.08515113580669395,0.11329640725448364
712004,0.10041055178815175,0.0951090989492612,0.4783502804845004,,,712004,0.08318920673105576,0.08514633685340545,0.1132937264889784
712005,0.1004407304231405,0.09510194863524064,0.47835103107027677,,,712005,0.08319070271794615,0.0851492511089483,0.11329555675800225
712006,0.1004696106780332,0.09509236966022899,0.4783494874971523,,,712006,0.083192993506957,0.08514366671868914,0.1132951617069425
712007,0.10049924408803479,0.09508093693751965,0.47834792899002604,,,712007,0.08319955985517274,0.0851422147849638,0.1132944237381834
712008,0.10052678790186065,0.09506808987166565,0.47834656138879184,,,712008,0.0832009879214243,0.08514210079004625,0.1132939482423728
712009,0.10055558937056511,0.09505258156882784,0.47834405775028427,,,712009,0.08320456742720145,0.0851451605869144,0.11329213813302244
712010,0.10058756511857105,0.09503254389821535,0.47834212986419455,,,712010,0.08320697008960459,0.08514321762916985,0.11329112642546525
712011,0.10061970532713391,0.09501223569241435,0.478338522607055,,,712011,0.08321362367876475,0.0851340860174068,0.11328843090745269
712012,0.1006534804230802,0.09498653388434815,0.47834302872463097,,,712012,0.08321738311553625,0.08513504936090555,0.11329364886951371
712013,0.10068602323193905,0.09495808327571459,0.47834422138096355,,,712013,0.08321560645396794,0.0851282157200586,0.1132958996334423
712014,0.10072169095678565,0.09492977096956695,0.4783451647587787,,,712014,0.0832314311828114,0.0851302995766211,0.1132969759635222
712015,0.1007578689818376,0.0949008746662218,0.47834280062918344,,,712015,0.08323406741741404,0.08512536629376144,0.1132955779524038
712016,0.10079418512709305,0.09487231902641165,0.47834260908631665,,,712016,0.08324155196301465,0.08512567135435105,0.1132959998740085
712017,0.10083135752166066,0.0948441537811548,0.47833991939990234,,,712017,0.08324626637008284,0.0851128734202936,0.11329446233877324
712018,0.10086877015166071,0.094819695191401,0.47833956016126916,,,712018,0.0832518637252461,0.08511134232723755,0.11329502662889654
712019,0.100908300767,0.0947984755320936,0.4783388530550505,,,712019,0.0832519407722738,0.085109724022877,0.11329570489970031
712020,0.100952021595518,0.09478185915566206,0.478337274899674,,,712020,0.08326468152694225,0.0851157711204811,0.11329502568373145
712021,0.10099766104945179,0.09477007897464675,0.4783324181881849,,,712021,0.08326738155754795,0.08511096305571025,0.11329206748974065
712022,0.10104304740817825,0.09476629707384604,0.47832918486110343,,,712022,0.08326771637161715,0.08510664069413915,0.1132910394373598
712023,0.10108976073946974,0.0947715364041504,0.4783297065470516,,,712023,0.08327853988430414,0.0851088359558155,0.1132933910920905
712024,0.10112824393218464,0.09478180175462,0.4783289179791629,,,712024,0.08328356355292049,0.08510931577487191,0.1132944958127417
712025,0.10117023521619481,0.09479707874126861,0.4783268981251457,,,712025,0.0832894832559509,0.0851063825522535,0.11329472408298265
712026,0.1012066008748653,0.09481960290339475,0.478323537784358,,,712026,0.08329450332266244,0.0851131554648671,0.11329331902344075
712027,0.10123786267607515,0.09484333676070611,0.4783174475626077,,,712027,0.08330024955986956,0.0851132186943829,0.11328911194008605
712028,0.1012671034876185,0.09487007509497809,0.4783152929581776,,,712028,0.08330011327914265,0.0851170203637226,0.1132890142391007
712029,0.10129338518958206,0.094898246144874,0.47831376621220223,,,712029,0.08330532409250324,0.08512316519644905,0.1132891144150132
712030,0.1013165200507111,0.09492756693728445,0.47831646491492763,,,712030,0.0833116722284298,0.0851305998857738,0.11329322748924305
712031,0.10133370436891095,0.09495762725800505,0.47831328890258606,,,712031,0.0833136322767595,0.08513000478456526,0.1132916267953176
712032,0.10134317745128875,0.0949907215089591,0.47831155130254555,,,712032,0.0833122888454047,0.0851318934515157,0.1132912648325254
712033,0.1013467670302705,0.0950290112980627,0.4783116682603965,,,712033,0.0833164869621376,0.0851412442289618,0.11329213449228236
712034,0.10134443617701175,0.0950671076124348,0.47830400218296515,,,712034,0.08330885743675334,0.0851413166460191,0.11328576216962749
712035,0.10133723067721775,0.09510727909332034,0.4783052291423,,,712035,0.08331378701429785,0.08514995702702416,0.11328724850978765
712036,0.1013184479573872,0.0951514091885856,0.4783034268304466,,,712036,0.0833030694495742,0.08515806580958424,0.11328603245783685
712037,0.1012896820518481,0.0951944759736515,0.47830589991183564,,,712037,0.0832990332083553,0.08516502071155871,0.11328827629541975
712038,0.10125221530783415,0.09523938214281051,0.478309632395025,,,712038,0.08329502917652665,0.0851736713413013,0.1132913590147112
712039,0.10120399383481321,0.09528590543248035,0.47830741157879686,,,712039,0.083286192594302,0.0851726252168813,0.1132885176414749
712040,0.10115188642481784,0.09533345178673194,0.47831098684479934,,,712040,0.08328657614329095,0.08518305106456339,0.1132905503991617
712041,0.10108575041587456,0.0953840103328785,0.4783110029784509,,,712041,0.0832788220793888,0.0851907775440501,0.11328890737631944
712042,0.1010133777835384,0.09543491515574526,0.4783129365831251,,,712042,0.08326759327072016,0.0851967643269878,0.11328912041646455
712043,0.10093460084202875,0.0954850579753359,0.47831655375232146,,,712043,0.08326042379251625,0.08520080932313065,0.11329055924710585
712044,0.1008504488675053,0.0955338671698692,0.478316619515905,,,712044,0.08324147355240305,0.0852008664308759,0.11328885063616656
712045,0.10076485553570515,0.09558218382486611,0.47832328884040165,,,712045,0.08323383727852525,0.0852152736617415,0.11329272910358204
712046,0.10067086494764295,0.09563041639784589,0.47832389118105634,,,712046,0.0832195199432644,0.08522422625844375,0.11329063141756521
712047,0.10057446645183855,0.0956745435570876,0.478326074702204,,,712047,0.08320194521601496,0.08523205804964634,0.11329009158331015
712048,0.1004811045501787,0.09572168118607245,0.47833264320026536,,,712048,0.08319369515414349,0.08523379638622675,0.11329392098296595
712049,0.1003825701244675,0.09576410143263554,0.4783354383333236,,,712049,0.08317799540571645,0.085237248678036,0.11329392432557481
712050,0.1002857643777993,0.09580311807199685,0.4783388389444994,,,712050,0.08317025307387625,0.0852453318686501,0.11329403156802226
712051,0.1001868561050893,0.09583896745686729,0.4783405290987268,,,712051,0.083155597676875,0.08525098218305555,0.113292655836284
712052,0.10009126091571341,0.09587189897839771,0.47834453785482745,,,712052,0.0831422828771551,0.085255000652964,0.11329367484717004
712053,0.09999704601728884,0.09590248820979425,0.47834433525643416,,,712053,0.08312928551429624,0.08525629936857035,0.11329056348026109
