field.frameNumber,field.x_m,field.y_m,field.z_m
698213,0.031267459062481,0.319636411627536,9.88134881093616E-05
698214,0.03125856668663,0.319644172401266,9.88163999761649E-05
698215,0.031243361772838,0.31964746483438,9.88183012308741E-05
698216,0.031234288749587,0.319649332750406,9.8819405902062E-05
698217,0.031219581175398,0.319657752503431,9.88228597665897E-05
698218,0.031204143237166,0.319658464969361,9.88239787745315E-05
698219,0.031190492970697,0.319664516492216,9.88266405448357E-05
698220,0.031173576973549,0.319668970811552,9.88289998646863E-05
698221,0.031161059109231,0.31966478384811,9.88284374984771E-05
698222,0.031142314743799,0.319668038590652,9.88305332956241E-05
698223,0.031121705193079,0.319670039723879,9.8832351047573E-05
698224,0.031109112519076,0.319679665307189,9.88360536733901E-05
698225,0.031102853792279,0.319682357557781,9.88372486908085E-05
698226,0.031079720384848,0.319672311952766,9.88354975031691E-05
698227,0.0310673392164,0.31967356136243,9.88366040844402E-05
698228,0.031047972678039,0.319673770127217,9.88377965563392E-05
698229,0.031026771868242,0.319670910021081,9.88381492449952E-05
698230,0.031018141203202,0.319678203057514,9.88409015885705E-05
698231,0.030993089823196,0.319676291898739,9.88417712810552E-05
698232,0.030976940656326,0.319679737967508,9.88437749277482E-05
698233,0.030970589752343,0.319678618495418,9.88437995462221E-05
698234,0.030957226980174,0.319677560250704,9.88442514829324E-05
698235,0.030941957938971,0.319673668422187,9.88439404072672E-05
698236,0.030932960938238,0.319675446262057,9.88450128653895E-05
698237,0.030920211918429,0.319673329182455,9.88451024426795E-05
698238,0.030906499607562,0.319665891541043,9.88436069437326E-05
698239,0.030897849438572,0.319670385162088,9.88454969124142E-05
698240,0.03088091147598,0.319672771084654,9.88472194916046E-05
698241,0.030876370204497,0.319666994661981,9.88457022128575E-05
698242,0.030873459738408,0.319673082128436,9.88477494907047E-05
698243,0.030858970553436,0.319675011727638,9.88491886735332E-05
698244,0.03086095759697,0.319676603878171,9.88495640474318E-05
698245,0.030840764510574,0.319673399461343,9.88497518306097E-05
698246,0.030841114370918,0.319679011609906,9.88514625816506E-05
698247,0.030828587154158,0.319684787810512,9.8853974009383E-05
698248,0.030833006020684,0.319687826675753,9.88546539880675E-05
698249,0.030819733952705,0.319696401338108,9.88580720194254E-05
698250,0.030815309338473,0.319701093427359,9.88597770747446E-05
698251,0.030810207637284,0.319710726514635,9.88630456760786E-05
698252,0.030803553575856,0.319715657332387,9.88649542323916E-05
698253,0.030802371803196,0.319725482140557,9.88680536407882E-05
698254,0.030800874064947,0.319734626271563,9.88709614916372E-05
698255,0.030790799503664,0.319749418064909,9.88761110157221E-05
698256,0.030791240471694,0.31976208679081,9.88799931400108E-05
698257,0.030791742033319,0.319773025445536,9.8883338074951E-05
698258,0.030778877719775,0.319783509649622,9.8887321374419E-05
698259,0.030778663126631,0.319791524670842,9.88898061971E-05
698260,0.030768121877514,0.319804441694533,9.8894404611416E-05
698261,0.030762564043585,0.319817345215666,9.88987085833726E-05
698262,0.030771838747761,0.319828666632458,9.8901660561368E-05
698263,0.030758345664561,0.31983756885023,9.89051925043838E-05
698264,0.030752600995477,0.319849338393807,9.89091575714363E-05
698265,0.030760185546974,0.319863350759316,9.89130380515402E-05
698266,0.030753906984305,0.319874086115239,9.89167152101733E-05
698267,0.030746567585406,0.319880514583539,9.89191256539623E-05
698268,0.030732327508259,0.319882318994893,9.89205117108982E-05
698269,0.03073657969055,0.31989657941581,9.89246628127494E-05
698270,0.03073010530379,0.319902998548337,9.89270199905912E-05
698271,0.030722023868199,0.319915881672597,9.8931464667773E-05
698272,0.030715634199471,0.319918032044463,9.89325001639618E-05
698273,0.030710812086928,0.319926686426311,9.89354505862572E-05
698274,0.030709617054399,0.319937681874647,9.89389118645767E-05
698275,0.030696441346686,0.319943841425297,9.89415793148374E-05
698276,0.030695020662061,0.319953247144961,9.89445633669539E-05
698277,0.03068602234462,0.31996038066569,9.89472879215358E-05
698278,0.030685344927705,0.319968860992791,9.89499432320629E-05
698279,0.030694601819112,0.319981637165745,9.89533449833324E-05
698280,0.030698949786884,0.319986979123028,9.89547395058854E-05
698281,0.030690721562692,0.319991899630002,9.89567365748956E-05
698282,0.0306838956523,0.319995236995841,9.89581636231529E-05
698283,0.030689867808251,0.32001030756309,9.89624644374687E-05
698284,0.030678812840747,0.32001672087386,9.89650866323744E-05
698285,0.030678284122623,0.320020754764283,9.89663617284031E-05
698286,0.030675581491119,0.320031728752933,9.89699042025505E-05
698287,0.030676735143671,0.320035342075282,9.89709515732962E-05
698288,0.030671106939513,0.320043590774289,9.89738238121873E-05
698289,0.030666078136533,0.320048583181413,9.89756566975863E-05
698290,0.030667874287075,0.320057811470142,9.89783986427017E-05
698291,0.030671557040847,0.320065148822354,9.89804474151312E-05
698292,0.030669540780808,0.320070760485138,9.89822958399889E-05
698293,0.030676791718951,0.320079629864825,9.89846093412683E-05
698294,0.030674423384173,0.320083492969462,9.89859389115555E-05
698295,0.030667046295727,0.320092423304807,9.89891232790474E-05
698296,0.030671405560714,0.320098178238816,9.89906445310607E-05
698297,0.030663312650094,0.32010363102061,9.89927979044847E-05
698298,0.030663578123493,0.32010643703633,9.89936479878772E-05
698299,0.030665861512741,0.320116893275481,9.89967403269842E-05
698300,0.030654157683188,0.320121054615662,9.89987056718711E-05
698301,0.030654916729704,0.320127752076591,9.90007273650173E-05
698302,0.030653700407251,0.320132816192,9.90023602973067E-05
698303,0.030650522471559,0.320132081641861,9.90023188277567E-05
698304,0.03064855779048,0.320137993317118,9.90042567902694E-05
698305,0.030642570064682,0.320142950955441,9.90061348066229E-05
698306,0.030641280622174,0.320148690633226,9.90079803828148E-05
698307,0.030629717638029,0.32014847656287,9.90085878791458E-05
698308,0.030637256491141,0.320152036121008,9.90092467359482E-05
698309,0.030638325140729,0.320160955468543,9.90119357610064E-05
698310,0.030632428998724,0.32016385912799,9.9013174870155E-05
698311,0.03063393846616,0.320164239474045,9.90132042673064E-05
698312,0.030627671542082,0.320167976875889,9.9014722151014E-05
698313,0.030624906567653,0.320175898856377,9.90173268304861E-05
698314,0.030620289165479,0.320176879802138,9.90178983718559E-05
698315,0.030616327813987,0.320177997469181,9.90184738728361E-05
698316,0.030606853574703,0.320171330240771,9.90169691538756E-05
698317,0.03060215258248,0.320175860809845,9.90186404853932E-05
698318,0.030593396116172,0.320171427810209,9.90177831300398E-05
698319,0.030587558526911,0.32016920224733,9.9017436662352E-05
698320,0.030589032263937,0.320169614533782,9.90174779932906E-05
698321,0.030585669961986,0.320166979055999,9.90168609004694E-05
698322,0.03057808380839,0.320161363959127,9.90155707450979E-05
698323,0.030575822464028,0.320157793905597,9.90146012423421E-05
698324,0.030574838320329,0.320151328989573,9.90126643919398E-05
698325,0.030563868992084,0.3201415244402,9.9010279018541E-05
698326,0.030565758805186,0.32014214773181,9.90103612004689E-05
698327,0.03056330150431,0.320131584997843,9.9007246142202E-05
698328,0.030554702724887,0.320125542746381,9.90058832098795E-05
698329,0.030550811910875,0.320112686613953,9.90021442272004E-05
698330,0.030549639306297,0.320109417976176,9.90012042820787E-05
698331,0.030545193569794,0.320097710554426,9.89978519555512E-05
698332,0.030536547387494,0.320084599133535,9.89943112201241E-05
698333,0.030525216270925,0.320070847149433,9.89907292900383E-05
698334,0.030509675504619,0.320060481598062,9.89884371498384E-05
698335,0.030517843138562,0.320052663705343,9.89855498793601E-05
698336,0.030516163568364,0.320047229641971,9.8983971514699E-05
698337,0.03051038041507,0.320038014565052,9.89814658822752E-05
698338,0.03050544887448,0.320023945339774,9.89774133285382E-05
698339,0.030498897519811,0.320014224048416,9.89747962958365E-05
698340,0.030489919809758,0.320005826683443,9.89727289749109E-05
698341,0.030488003291958,0.319990409033456,9.89680848632601E-05
698342,0.030485407808656,0.319978800058404,9.89646551284862E-05
698343,0.030478071053045,0.319964302826027,9.89606106520102E-05
698344,0.030475158159294,0.3199583231958,9.89589358407761E-05
698345,0.030473308100625,0.319944710328644,9.89548445631816E-05
698346,0.030471525537664,0.319938091157901,9.89529066379724E-05
698347,0.030471276162991,0.319927954915845,9.89497945269036E-05
698348,0.030466503473543,0.319919222237243,9.89473788376993E-05
698349,0.030466419191496,0.319908888002789,9.89441960369541E-05
698350,0.030465264767012,0.319897024443425,9.8940603833253E-05
698351,0.030466040835791,0.319892693999986,9.89392228545327E-05
698352,0.03046463579962,0.319876744222158,9.89343848088464E-05
698353,0.030458483659904,0.319871294824245,9.89330622352957E-05
698354,0.030464227226232,0.319864106245891,9.89305102829241E-05
698355,0.030464702045389,0.319858364947538,9.89287116576754E-05
698356,0.030457599591224,0.319850775545546,9.89267843305996E-05
698357,0.030468562143529,0.319847657072826,9.89251838484084E-05
698358,0.030472268351935,0.319834213858389,9.89208212568427E-05
698359,0.030468722739115,0.319826716989019,9.89187152912185E-05
698360,0.030464303050547,0.319815522494153,9.8915519665066E-05
698361,0.030474144748136,0.319810842514737,9.8913502806941E-05
698362,0.030475355141996,0.319801104550716,9.89104285194498E-05
698363,0.030478430922354,0.319799773385755,9.8909838746275E-05
698364,0.030493619707597,0.319793542132672,9.8907031919504E-05
698365,0.030499149873629,0.319790112611515,9.89056519202225E-05
698366,0.030499472935153,0.319778634516792,9.89020925560302E-05
698367,0.030509094314329,0.319765854892471,9.88975901050626E-05
698368,0.030513969108925,0.31976461599854,9.88969240035553E-05
698369,0.030535214949356,0.319762316744547,9.88949772302572E-05
698370,0.030528498296994,0.319752139046466,9.88922290420802E-05
698371,0.030542223641328,0.319746824886564,9.88897903461683E-05
698372,0.030555048072214,0.319738533109895,9.88864856482641E-05
698373,0.030574390959383,0.31973301023179,9.88836553567074E-05
698374,0.030577176508501,0.319716384035001,9.88783645657909E-05
698375,0.030587393297211,0.319703857553384,9.88739055176602E-05
698376,0.030593146302983,0.319689660792784,9.88691912633954E-05
698377,0.030601540576078,0.319678040665569,9.8865117949487E-05
698378,0.030603417777545,0.319667986900463,9.88619074087094E-05
698379,0.030618156482203,0.319656086921777,9.88573782166879E-05
698380,0.030637496874264,0.319650206150522,9.88544376739897E-05
698381,0.030643843489803,0.319637352379357,9.88501031025657E-05
698382,0.030657458473269,0.319624333719115,9.88452942962126E-05
698383,0.030660571653968,0.319615998464014,9.88425418550487E-05
698384,0.030677158591169,0.319608925281824,9.88393938849974E-05
698385,0.030687187659475,0.319600218318125,9.88361239441238E-05
698386,0.030691127543651,0.319592011181957,9.88333628684779E-05
698387,0.030702142621432,0.319581459615271,9.88294665055234E-05
698388,0.03071409671061,0.319571409379267,9.88256700873991E-05
698389,0.030715822279008,0.319558233257334,9.88215052531993E-05
698390,0.030734919827362,0.319547709507563,9.88171466774768E-05
698391,0.030745246733611,0.319534139823156,9.881235942788E-05
698392,0.030755806903067,0.319521570738127,9.88078672368164E-05
698393,0.030774668221732,0.31951461575607,9.8804623247295E-05
698394,0.030779057491301,0.319503737026329,9.88010119120641E-05
698395,0.030791518042596,0.319492072754079,9.87966881257352E-05
698396,0.030794001593892,0.319475910031625,9.87915578899989E-05
698397,0.030806138792726,0.319460708877011,9.87861619478614E-05
698398,0.03081453024585,0.319459350610253,9.87852541839973E-05
698399,0.030830122100314,0.319441157878904,9.87787342269231E-05
698400,0.030834393024576,0.319429389803819,9.87748554571732E-05
698401,0.030847403223575,0.319419152890913,9.87709399396519E-05
698402,0.030855758484956,0.319405306352178,9.8766182136667E-05
698403,0.030854753579958,0.31939577821258,9.87633016099054E-05
698404,0.030873652912346,0.319388320093616,9.8759900207801E-05
698405,0.030886131479254,0.319376907293186,9.87556529418177E-05
698406,0.030887000842705,0.319364510638268,9.87517784157843E-05
698407,0.030906998076526,0.319358107659287,9.87486385319314E-05
698408,0.03091274063152,0.319351909154489,9.87463920377185E-05
698409,0.030924398967557,0.319342281683689,9.87427432533328E-05
698410,0.030934725434283,0.319333714360664,9.87394990634161E-05
698411,0.030953256740728,0.319329304857888,9.87370594783821E-05
698412,0.030961312414197,0.319316991534542,9.87327920635717E-05
698413,0.030972742814421,0.319316799598482,9.8732067052465E-05
698414,0.030993248755523,0.319311221601792,9.87291520124778E-05
698415,0.031006842852648,0.319307823475011,9.87273119835153E-05
698416,0.031014651870133,0.319302508817083,9.87252177525599E-05
698417,0.031027809643583,0.3193041780826,9.87249662329215E-05
698418,0.031046934993589,0.319293499914891,9.87205584055406E-05
698419,0.031051195587756,0.319284606363261,9.87175669159845E-05
698420,0.031065171305177,0.319285977443749,9.87171757736438E-05
698421,0.031073410187709,0.319276683550127,9.87138290638456E-05
698422,0.031088933836637,0.319269764216823,9.87107904854567E-05
698423,0.031101813189873,0.31927095545318,9.87104077299072E-05
698424,0.031103360381356,0.319259019088954,9.87066357030497E-05
698425,0.031119402010871,0.319258376297214,9.87055030223782E-05
698426,0.031131585188544,0.319249102588079,9.87019327886585E-05
698427,0.031137326408664,0.319240102323351,9.8698822137866E-05
698428,0.031150535435534,0.319235268128828,9.8696561567635E-05
698429,0.031159901028893,0.319227658513797,9.8693668763028E-05
698430,0.031167339038359,0.319223375002473,9.8691914211857E-05
698431,0.031176807358818,0.319216470139902,9.86892328121991E-05
698432,0.03118121696575,0.319214812971122,9.86884647861674E-05
698433,0.031182371974218,0.31921721939798,9.86891397974365E-05
698434,0.031193051229713,0.319212673142456,9.86871154011193E-05
698435,0.031190555983473,0.319205111579075,9.86849282974545E-05
698436,0.031203510498491,0.319197362253237,9.86817833475429E-05
698437,0.031205315507671,0.31918410791712,9.86775897599546E-05
698438,0.031216328866477,0.319179344377937,9.86754788790956E-05
698439,0.031212601262956,0.319172413889705,9.86735582205189E-05
698440,0.031224304420661,0.319165251624923,9.86706672461146E-05
698441,0.031229122724849,0.319154879860526,9.86671872993949E-05
698442,0.0312263907508,0.319149548835448,9.86657020192183E-05
698443,0.031221864935552,0.319138188580115,9.86624614445764E-05
698444,0.031230409797441,0.3191276932017,9.86587263004934E-05
698445,0.031233465661961,0.31912338809986,9.86572203435232E-05
698446,0.031235968514139,0.319110159800342,9.86529941387482E-05
698447,0.031228150896118,0.319105644987034,9.86520568604377E-05
698448,0.031226252062456,0.319098791743676,9.86500535056778E-05
698449,0.031230540109935,0.319096106750204,9.86489755160913E-05
698450,0.031231231673997,0.319090518449099,9.86472114595238E-05
698451,0.031231587642365,0.319081039911756,9.86442669639875E-05
698452,0.031231297454211,0.319072935390247,9.86417839369813E-05
698453,0.03123364129155,0.319076146639159,9.86426379570582E-05
698454,0.031235711720654,0.319066369505006,9.86395014911934E-05
698455,0.031238333940045,0.319060659965361,9.8637587578887E-05
698456,0.03124158906041,0.319059559157117,9.86370584158403E-05
698457,0.031236547113827,0.31905507140555,9.86359678054605E-05
698458,0.031232800529396,0.319051364636619,9.86350426449567E-05
698459,0.031233665368012,0.319052068567884,9.86352094048404E-05
698460,0.031226194613185,0.319045146028765,9.86335092318935E-05
698461,0.031225566106762,0.319044137205512,9.86332346588625E-05
698462,0.031222008091805,0.319035980952147,9.86309260214702E-05
698463,0.031222265183251,0.319037049186873,9.8631240555036E-05
698464,0.03121556233317,0.319030258423605,9.86295363005207E-05
698465,0.0312149813791,0.319031004745757,9.86298003520236E-05
698466,0.031208801374518,0.319028411489596,9.86293604104405E-05
698467,0.03120653480458,0.319025394214837,9.86285617230465E-05
698468,0.031202637714041,0.319023716804412,9.86282713074105E-05
698469,0.031194646594015,0.319015600762593,9.86262332965393E-05
698470,0.031191962784595,0.3190169788706,9.86268147176728E-05
698471,0.031192202074726,0.319010658131389,9.86248510768117E-05
698472,0.03118260730356,0.319007139412337,9.86243245716945E-05
698473,0.031182103588401,0.319007238867128,9.86243845900736E-05
698474,0.031184439853426,0.318996943278353,9.86210727165759E-05
698475,0.031183394476432,0.318998363492072,9.86215716891614E-05
698476,0.031174811399068,0.318997498334902,9.86218047751009E-05
698477,0.031170664799115,0.318996848648611,9.86218459059218E-05
698478,0.031166073047161,0.318992340493159,9.8620722778886E-05
698479,0.031170223220565,0.318988512433753,9.86193002288638E-05
698480,0.031165669613069,0.318983030086624,9.86178743793142E-05
698481,0.031154107075399,0.31897771071486,9.86169070629761E-05
698482,0.031152919756319,0.318972742447136,9.86154437052078E-05
698483,0.031143270606483,0.318963485844374,9.86131504530641E-05
698484,0.031139158607631,0.318962192144621,9.86129909156808E-05
698485,0.031133772083126,0.318955189104559,9.86111445078208E-05
698486,0.031135708623898,0.318949943260437,9.86094135674298E-05
698487,0.031130699747684,0.318949002551669,9.860941515627E-05
698488,0.031128891018783,0.318942925532611,9.86076459878471E-05
698489,0.031127616398938,0.318934815820456,9.86052187013087E-05
698490,0.031124660922412,0.318929727577698,9.86038213290907E-05
698491,0.031119782504797,0.318921995651485,9.86017204916978E-05
698492,0.03111827624903,0.31891494298495,9.85996327552141E-05
698493,0.031110216207491,0.318913268395,9.85995856961353E-05
698494,0.031099733583061,0.318907019260194,9.8598268680361E-05
698495,0.031098478707602,0.318902677468877,9.85970025011995E-05
698496,0.031101199498153,0.318904205029908,9.85973152117237E-05
698497,0.031102495885838,0.31889493127053,9.85943791041444E-05
698498,0.031099285388701,0.318892392391136,9.85937829656724E-05
698499,0.031100465874007,0.318888970547034,9.85926586979935E-05
698500,0.031091990327504,0.318882182073094,9.85910584072047E-05
698501,0.031094945065049,0.318881261304723,9.85906022764604E-05
698502,0.031094405145594,0.318873001408966,9.85880858687116E-05
698503,0.031093409344694,0.318864218119501,9.85854345691428E-05
698504,0.031091722790389,0.318863732708798,9.85853830782757E-05
698505,0.031085877566806,0.318857919593895,9.85839304351033E-05
698506,0.031086521881059,0.318853470191279,9.85825204363744E-05
698507,0.031089785168831,0.318847552512027,9.85805049799615E-05
698508,0.031088894876636,0.318845596707294,9.85799535483389E-05
698509,0.031090701820617,0.318842684006858,9.8578949841277E-05
698510,0.031086109834278,0.318837455974598,9.85776046736886E-05
698511,0.031092786184673,0.318835721944849,9.85766809040167E-05
698512,0.031091707920811,0.318830136459991,9.85750208064018E-05
698513,0.031090287258428,0.318824157833248,9.85732593836719E-05
698514,0.031099724438697,0.318818646527386,9.85710096564341E-05
698515,0.031099277128301,0.318812951654645,9.85692790645976E-05
698516,0.031108271457027,0.318812089320966,9.85684891598448E-05
698517,0.031105934115395,0.318800440829874,9.85650321999598E-05
698518,0.031112994092326,0.318803159613055,9.8565459604294E-05
698519,0.031110409264351,0.318795731602683,9.85633189146684E-05
698520,0.031116420379042,0.318795108645469,9.85627766166286E-05
698521,0.031123158191972,0.318795379318805,9.8562467639951E-05
698522,0.031128845440104,0.318794072437752,9.85617332427968E-05
698523,0.031137660825231,0.318793825335449,9.85611435364575E-05
698524,0.03113720089373,0.318794387187003,9.85613436365051E-05
698525,0.031140144712755,0.318788314862605,9.85592990863648E-05
